 PENELOPE (v. 2012)  Material data file ...............
 Material: K412-NIST                                                     
 Mass density = 2.60000000E+00 g/cm**3
 Number of elements in the molecule =  6
   atomic number =  8,  atoms/molecule = 1.00000000E+00
   atomic number = 12,  atoms/molecule = 1.80135981E-01
   atomic number = 13,  atoms/molecule = 6.80683381E-02
   atomic number = 14,  atoms/molecule = 2.82443702E-01
   atomic number = 20,  atoms/molecule = 1.01743281E-01
   atomic number = 26,  atoms/molecule = 5.18878017E-02
 Mean excitation energy = 1.37848286E+02 eV
 Number of oscillators = 26 (E/P inelastic model)
   1  1.43662655E+00  0.00000000E+00  9.14062256E+00   0  30
   2  7.69016046E+00  1.92861898E+01  4.07072716E+01   0  30
   3  3.60271961E-01  5.40000000E+01  1.21025306E+02  12   3
   4  7.20543923E-01  5.40000000E+01  1.21083001E+02  12   4
   5  2.07551207E-01  5.90000000E+01  1.32198725E+02  26   7
   6  1.03775603E-01  6.10000000E+01  1.36663288E+02  26   6
   7  1.36136676E-01  7.70000000E+01  1.72506113E+02  13   3
   8  2.72273352E-01  7.70000000E+01  1.72521411E+02  13   4
   9  3.60271961E-01  9.20000000E+01  2.06126806E+02  12   2
  10  1.03775603E-01  9.80000000E+01  2.19542926E+02  26   5
  11  5.64887405E-01  1.04000000E+02  2.33021605E+02  14   3
  12  1.12977481E+00  1.04000000E+02  2.33068595E+02  14   4
  13  1.36136676E-01  1.21000000E+02  2.71066729E+02  13   2
  14  5.64887405E-01  1.54000000E+02  3.45013368E+02  14   2
  15  4.06973123E-01  3.49000000E+02  7.81819102E+02  20   4
  16  2.03486562E-01  3.53000000E+02  7.90774561E+02  20   3
  17  2.03486562E-01  4.41000000E+02  9.87905924E+02  20   2
  18  2.00000000E+00  5.38000000E+02  1.20522772E+03   8   1
  19  2.07551207E-01  7.13000000E+02  1.59722265E+03  26   4
  20  1.03775603E-01  7.26000000E+02  1.62634319E+03  26   3
  21  1.03775603E-01  8.51000000E+02  1.90636056E+03  26   2
  22  3.60271961E-01  1.30800000E+03  2.93010607E+03  12   1
  23  1.36136676E-01  1.56400000E+03  3.50358039E+03  13   1
  24  5.64887405E-01  1.84400000E+03  4.13082161E+03  14   1
  25  2.03486562E-01  4.04100000E+03  9.05240792E+03  20   1
  26  1.03775603E-01  7.11700000E+03  1.59430796E+04  26   1
 Number of shells = 27 (Compton IA model)
   1  1.43662655E+00  0.00000000E+00  1.45455638E+00   0  30
   2  4.87621421E+00  1.33096370E+01  4.58465769E-01   0  30
   3  2.81394625E+00  2.96428026E+01  5.19019439E-01   0  30
   4  7.20543923E-01  5.40000000E+01  1.91891000E-01  12   4
   5  3.60271961E-01  5.40000000E+01  1.91325000E-01  12   3
   6  2.07551207E-01  5.90000000E+01  2.22909000E-01  26   7
   7  1.03775603E-01  6.10000000E+01  2.20645000E-01  26   6
   8  2.72273352E-01  7.70000000E+01  1.67604000E-01  13   4
   9  1.36136676E-01  7.70000000E+01  1.67061000E-01  13   3
  10  3.60271961E-01  9.20000000E+01  3.41174000E-01  12   2
  11  1.03775603E-01  9.80000000E+01  3.51458000E-01  26   5
  12  1.12977481E+00  1.04000000E+02  1.49030000E-01  14   4
  13  5.64887405E-01  1.04000000E+02  1.48493000E-01  14   3
  14  1.36136676E-01  1.21000000E+02  3.03886000E-01  13   2
  15  5.64887405E-01  1.54000000E+02  2.74105000E-01  14   2
  16  4.06973123E-01  3.49000000E+02  9.01604000E-02  20   4
  17  2.03486562E-01  3.53000000E+02  8.95584000E-02  20   3
  18  2.03486562E-01  4.41000000E+02  1.72935000E-01  20   2
  19  2.00000000E+00  5.38000000E+02  1.13183000E-01   8   1
  20  2.07551207E-01  7.13000000E+02  6.49062000E-02  26   4
  21  1.03775603E-01  7.26000000E+02  6.41844000E-02  26   3
  22  1.03775603E-01  8.51000000E+02  1.25935000E-01  26   2
  23  3.60271961E-01  1.30800000E+03  7.42688000E-02  12   1
  24  1.36136676E-01  1.56400000E+03  6.83322000E-02  13   1
  25  5.64887405E-01  1.84400000E+03  6.32596000E-02  14   1
  26  2.03486562E-01  4.04100000E+03  4.36230000E-02  20   1
  27  1.03775603E-01  7.11700000E+03  3.31215000E-02  26   1
 *** RELAX:  Z =  8,  no. of shells =  4,  no. of transitions =   8
   1 1s1/2 2  5.38000E+02  1.13183E-01
   2 2s1/2 2  2.84800E+01  5.77977E-01
   3 2p1/2 2  1.36200E+01  3.49407E-01
   4 2p3/2 2  1.36200E+01  3.49884E-01
   1  3  0  1.90768E-03  5.23090E+02
   1  4  0  3.80027E-03  5.23130E+02
   1  2  2  1.78644E-01  4.78820E+02
   1  2  3  1.16224E-01  4.93860E+02
   1  2  4  2.30418E-01  4.93900E+02
   1  3  3  1.10822E-02  5.08900E+02
   1  3  4  2.91115E-01  5.08940E+02
   1  4  4  1.66809E-01  5.08980E+02
 *** RELAX:  Z = 12,  no. of shells =  5,  no. of transitions =  19
   1 1s1/2 2  1.30800E+03  7.42688E-02
   2 2s1/2 2  9.20000E+01  3.41174E-01
   3 2p1/2 2  5.40000E+01  1.91325E-01
   4 2p3/2 4  5.40000E+01  1.91891E-01
   5 3s1/2 2  7.64600E+00  1.58368E+00
   1  3  0  9.27327E-03  1.25344E+03
   1  4  0  1.84189E-02  1.25369E+03
   1  2  2  8.23145E-02  1.11558E+03
   1  2  3  8.60821E-02  1.14849E+03
   1  2  4  1.68838E-01  1.14880E+03
   1  2  5  1.26143E-02  1.19815E+03
   1  3  3  1.44975E-02  1.18140E+03
   1  3  4  3.75508E-01  1.18171E+03
   1  3  5  5.99323E-03  1.23106E+03
   1  4  4  2.14213E-01  1.18202E+03
   1  4  5  1.17657E-02  1.23137E+03
   1  5  5  4.81078E-04  1.28072E+03
   2  5  5  1.20110E-02  7.56800E+01
   2 30  0  1.78346E-04  3.31193E+01
   2 30 30  9.87810E-01  2.62261E+01
   3 30  0  3.41139E-06  4.96600E+01
   3 30 30  9.99997E-01  4.27700E+01
   4 30  0  3.17959E-06  4.93500E+01
   4 30 30  9.99997E-01  4.24600E+01
 *** RELAX:  Z = 13,  no. of shells =  6,  no. of transitions =  40
   1 1s1/2 2  1.56400E+03  6.83322E-02
   2 2s1/2 2  1.21000E+02  3.03886E-01
   3 2p1/2 2  7.70000E+01  1.67061E-01
   4 2p3/2 4  7.70000E+01  1.67604E-01
   5 3s1/2 2  9.07500E+00  1.23808E+00
   6 3p1/2 1  9.07500E+00  9.18119E-01
   1  3  0  1.23699E-02  1.48630E+03
   1  4  0  2.45528E-02  1.48671E+03
   1  6  0  7.55854E-05  1.55757E+03
   1  7  0  1.50039E-04  1.55757E+03
   1  2  2  7.83944E-02  1.31180E+03
   1  2  3  8.32180E-02  1.34965E+03
   1  2  4  1.62725E-01  1.35012E+03
   1  2  5  1.35884E-02  1.42069E+03
   1  2  6  8.96794E-04  1.42597E+03
   1  2  7  1.76485E-03  1.42598E+03
   1  3  3  1.42920E-02  1.38750E+03
   1  3  4  3.66942E-01  1.38797E+03
   1  3  5  6.49294E-03  1.45854E+03
   1  3  6  3.01318E-04  1.46382E+03
   1  3  7  3.65883E-03  1.46383E+03
   1  4  4  2.09226E-01  1.38844E+03
   1  4  5  1.27063E-02  1.45901E+03
   1  4  6  3.65189E-03  1.46429E+03
   1  4  7  4.20421E-03  1.46430E+03
   1  5  5  5.81139E-04  1.52958E+03
   1  5  6  7.17440E-05  1.53486E+03
   1  5  7  1.36311E-04  1.53487E+03
   2  6  0  2.07691E-06  1.22300E+02
   2  7  0  4.02982E-06  1.14180E+02
   2  5  5  1.12532E-02  9.87300E+01
   2  5  6  2.61944E-03  1.04010E+02
   2  5  7  5.21749E-03  1.04020E+02
   3  5  0  1.60531E-05  7.10400E+01
   3  7  0  1.75611E-10  7.63300E+01
   3  5  5  1.50408E-01  6.08800E+01
   3  5  6  8.00076E-01  6.61600E+01
   3  5  7  4.94996E-02  6.61700E+01
   4  5  0  1.49999E-05  7.05700E+01
   4  6  0  8.20316E-11  7.58500E+01
   4  7  0  8.10126E-11  7.58600E+01
   4  5  5  1.44757E-01  6.04100E+01
   4  5  6  2.47625E-02  6.56900E+01
   4  5  7  8.30465E-01  6.57000E+01
   2 30  0  2.49536E-04  3.81712E+01
   2 30 30  9.80654E-01  2.85014E+01
 *** RELAX:  Z = 14,  no. of shells =  6,  no. of transitions =  51
   1 1s1/2 2  1.84400E+03  6.32596E-02
   2 2s1/2 2  1.54000E+02  2.74105E-01
   3 2p1/2 2  1.04000E+02  1.48493E-01
   4 2p3/2 4  1.04000E+02  1.49030E-01
   5 3s1/2 2  1.34600E+01  1.03443E+00
   6 3p1/2 2  8.15100E+00  7.43235E-01
   1  3  0  1.59791E-02  1.73939E+03
   1  4  0  3.17052E-02  1.73998E+03
   1  6  0  2.72402E-04  1.83596E+03
   1  7  0  5.40444E-04  1.83596E+03
   1  2  2  7.47954E-02  1.52540E+03
   1  2  3  8.01214E-02  1.56828E+03
   1  2  4  1.56131E-01  1.56897E+03
   1  2  5  1.41124E-02  1.66332E+03
   1  2  6  1.95584E-03  1.67040E+03
   1  2  7  3.81585E-03  1.67043E+03
   1  3  3  1.39905E-02  1.61116E+03
   1  3  4  3.56408E-01  1.61185E+03
   1  3  5  6.76231E-03  1.70620E+03
   1  3  6  6.64732E-04  1.71328E+03
   1  3  7  7.97675E-03  1.71331E+03
   1  4  4  2.03104E-01  1.61254E+03
   1  4  5  1.31982E-02  1.70689E+03
   1  4  6  7.96407E-03  1.71397E+03
   1  4  7  9.16547E-03  1.71400E+03
   1  5  5  6.64748E-04  1.80124E+03
   1  5  6  1.66185E-04  1.80832E+03
   1  5  7  3.25975E-04  1.80835E+03
   1  6  6  6.39199E-06  1.81540E+03
   1  6  7  1.08669E-04  1.81543E+03
   1  7  7  6.39185E-05  1.81546E+03
   2  6  0  5.83271E-06  1.55240E+02
   2  7  0  1.07340E-05  1.45030E+02
   2  5  5  1.03158E-02  1.24290E+02
   2  5  6  5.00684E-03  1.31370E+02
   2  5  7  9.95440E-03  1.31400E+02
   2  6  6  3.23120E-05  1.38450E+02
   2  7  7  6.62381E-05  1.38510E+02
   3  5  0  4.72000E-05  9.50400E+01
   3  7  0  1.82830E-09  1.02150E+02
   3  5  5  6.76285E-02  8.14100E+01
   3  5  6  5.54847E-01  8.84900E+01
   3  5  7  3.51351E-02  8.85200E+01
   3  6  6  7.24466E-02  9.55700E+01
   3  6  7  2.62434E-01  9.56000E+01
   3  7  7  7.46220E-03  9.56300E+01
   4  5  0  4.42068E-05  9.43500E+01
   4  6  0  8.54246E-10  1.00630E+02
   4  7  0  8.43116E-10  1.01460E+02
   4  5  5  6.56816E-02  8.07200E+01
   4  5  6  1.73500E-02  8.78000E+01
   4  5  7  5.73636E-01  8.78300E+01
   4  6  6  1.08438E-03  9.48800E+01
   4  6  7  1.37565E-01  9.49100E+01
   4  7  7  2.04639E-01  9.49400E+01
   2 30  0  3.26940E-04  4.33570E+01
   2 30 30  9.74281E-01  3.11037E+01
 *** RELAX:  Z = 20,  no. of shells =  8,  no. of transitions =  72
   1 1s1/2 2  4.04100E+03  4.36230E-02
   2 2s1/2 2  4.41000E+02  1.72935E-01
   3 2p1/2 2  3.53000E+02  8.95584E-02
   4 2p3/2 4  3.49000E+02  9.01604E-02
   5 3s1/2 2  4.60000E+01  5.06050E-01
   6 3p1/2 2  2.80000E+01  3.28910E-01
   7 3p3/2 4  2.80000E+01  3.30822E-01
  10 4s1/2 2  6.11300E+00  1.93895E+00
   1  3  0  4.87196E-02  3.68813E+03
   1  4  0  9.61323E-02  3.69172E+03
   1  6  0  5.17776E-03  4.01276E+03
   1  7  0  1.02489E-02  4.01276E+03
   1  2  2  5.63485E-02  3.14678E+03
   1  2  3  6.20531E-02  3.22185E+03
   1  2  4  1.17762E-01  3.22569E+03
   1  2  5  1.42824E-02  3.52773E+03
   1  2  6  7.23290E-03  3.54688E+03
   1  2  7  1.37034E-02  3.54729E+03
   1  2 10  1.62556E-03  3.57544E+03
   1  3  3  1.12223E-02  3.29692E+03
   1  3  4  2.76841E-01  3.30076E+03
   1  3  5  6.82757E-03  3.60280E+03
   1  3  6  2.49498E-03  3.62195E+03
   1  3  7  2.84282E-02  3.62236E+03
   1  3 10  7.63476E-04  3.65051E+03
   1  4  4  1.56416E-01  3.30460E+03
   1  4  5  1.29934E-02  3.60664E+03
   1  4  6  2.83839E-02  3.62579E+03
   1  4  7  3.25412E-02  3.62620E+03
   1  4 10  1.45385E-03  3.65435E+03
   1  5  5  8.72175E-04  3.90868E+03
   1  5  6  7.79616E-04  3.92783E+03
   1  5  7  1.47733E-03  3.92824E+03
   1  5 10  1.99359E-04  3.95639E+03
   1  6  6  1.35157E-04  3.94698E+03
   1  6  7  2.93344E-03  3.94739E+03
   1  6 10  8.76773E-05  3.97554E+03
   1  7  7  1.69495E-03  3.94780E+03
   1  7 10  1.68035E-04  3.97595E+03
   2  3  0  9.42443E-05  7.50700E+01
   2  4  0  2.78501E-04  7.89100E+01
   2  6  0  2.04061E-04  4.15430E+02
   2  7  0  3.06021E-04  4.15800E+02
   2  3 10  1.42567E-02  6.96200E+01
   2  4 10  2.73691E-02  7.34600E+01
   2  5  5  1.31208E-02  3.27790E+02
   2  5  6  2.28754E-02  3.46940E+02
   2  5  7  4.52192E-02  3.47350E+02
   2  5 10  2.68682E-03  3.75500E+02
   2  6  6  5.21721E-04  3.66090E+02
   2  6  7  2.67985E-04  3.66500E+02
   2  6 10  2.04550E-03  3.94650E+02
   2  7  7  1.23299E-03  3.66910E+02
   2  7 10  4.04393E-03  3.95060E+02
   3  5  0  1.19571E-03  3.06430E+02
   3  7  0  8.74676E-07  3.27120E+02
   3 10  0  2.53632E-05  3.53590E+02
   3  5  5  1.08556E-02  2.52720E+02
   3  5  6  1.98917E-01  2.71870E+02
   3  5  7  1.45844E-02  2.72280E+02
   3  5 10  2.13424E-03  3.00430E+02
   3  6  6  1.61409E-01  2.91020E+02
   3  6  7  5.70643E-01  2.91430E+02
   3  6 10  2.29240E-02  3.19580E+02
   3  7  7  1.58751E-02  2.91840E+02
   3  7 10  1.43604E-03  3.19990E+02
   4  5  0  1.13130E-03  3.02690E+02
   4  6  0  4.05972E-07  3.23340E+02
   4  7  0  3.98812E-07  3.23710E+02
   4 10  0  2.39671E-05  3.49750E+02
   4  5  5  1.06175E-02  2.48880E+02
   4  5  6  6.94101E-03  2.68030E+02
   4  5  7  2.03179E-01  2.68440E+02
   4  5 10  2.10301E-03  2.96590E+02
   4  6  6  2.69658E-03  2.87180E+02
   4  6  7  2.95034E-01  2.87590E+02
   4  6 10  6.70949E-04  3.15740E+02
   4  7  7  4.53602E-01  2.88000E+02
   4  7 10  2.39998E-02  3.16150E+02
   2 30 30  8.65477E-01  3.53086E+01
 *** RELAX:  Z = 26,  no. of shells = 10,  no. of transitions = 148
   1 1s1/2 2  7.11700E+03  3.31215E-02
   2 2s1/2 2  8.51000E+02  1.25935E-01
   3 2p1/2 2  7.26000E+02  6.41844E-02
   4 2p3/2 4  7.13000E+02  6.49062E-02
   5 3s1/2 2  9.80000E+01  3.51458E-01
   6 3p1/2 2  6.10000E+01  2.20645E-01
   7 3p3/2 4  5.90000E+01  2.22909E-01
   8 3d3/2 4  9.00000E+00  2.01788E-01
   9 3d5/2 2  9.00000E+00  2.02832E-01
  10 4s1/2 2  7.87000E+00  1.53122E+00
   1  3  0  1.01391E-01  6.39103E+03
   1  4  0  1.98621E-01  6.40401E+03
   1  6  0  1.22111E-02  7.05818E+03
   1  7  0  2.40042E-02  7.05818E+03
   1  8  0  6.00794E-06  7.10826E+03
   1  9  0  8.77226E-06  7.10826E+03
   1  2  2  4.47039E-02  5.39748E+03
   1  2  3  4.96309E-02  5.50689E+03
   1  2  4  9.05528E-02  5.51975E+03
   1  2  5  1.20010E-02  6.13943E+03
   1  2  6  6.37861E-03  6.17240E+03
   1  2  7  1.15700E-02  6.17399E+03
   1  2  8  1.85335E-04  6.22753E+03
   1  2  9  2.57546E-04  6.22770E+03
   1  2 10  1.06145E-03  6.23291E+03
   1  3  3  8.91045E-03  5.61630E+03
   1  3  4  2.13819E-01  5.62916E+03
   1  3  5  5.68040E-03  6.24884E+03
   1  3  6  2.15909E-03  6.28181E+03
   1  3  7  2.36911E-02  6.28340E+03
   1  3  8  2.57540E-04  6.33694E+03
   1  3  9  9.60385E-04  6.33711E+03
   1  3 10  4.93427E-04  6.34232E+03
   1  4  4  1.19207E-01  5.64202E+03
   1  4  5  1.04085E-02  6.26170E+03
   1  4  6  2.36893E-02  6.29467E+03
   1  4  7  2.68353E-02  6.29626E+03
   1  4  8  1.19389E-03  6.34980E+03
   1  4  9  1.17463E-03  6.34997E+03
   1  4 10  9.02593E-04  6.35518E+03
   1  5  5  8.02277E-04  6.88138E+03
   1  5  6  7.39263E-04  6.91435E+03
   1  5  7  1.34525E-03  6.91594E+03
   1  5  8  1.93914E-05  6.96948E+03
   1  5  9  2.66629E-05  6.96965E+03
   1  5 10  1.40581E-04  6.97486E+03
   1  6  6  1.28144E-04  6.94732E+03
   1  6  7  2.71062E-03  6.94891E+03
   1  6  8  2.21776E-05  7.00245E+03
   1  6  9  8.87081E-05  7.00262E+03
   1  6 10  6.40678E-05  7.00783E+03
   1  7  7  1.58655E-03  6.95050E+03
   1  7  8  1.16223E-04  7.00404E+03
   1  7  9  1.11167E-04  7.00421E+03
   1  7 10  1.21269E-04  7.00942E+03
   1  8  9  3.85858E-06  7.05775E+03
   1  8 10  3.85858E-06  7.06296E+03
   1  9 10  3.51272E-06  7.06313E+03
   2  3  0  2.87212E-05  1.09410E+02
   2  4  0  1.12411E-04  1.22270E+02
   2  6  0  5.33553E-04  7.92200E+02
   2  7  0  7.92105E-04  7.92200E+02
   2  8  0  1.62101E-06  8.44520E+02
   2  9  0  2.20171E-06  8.45440E+02
   2  3  8  4.09703E-02  9.65000E+01
   2  3  9  6.68427E-02  9.66700E+01
   2  3 10  6.19976E-03  1.01880E+02
   2  4  6  6.47652E-02  5.42300E+01
   2  4  7  1.45310E-01  5.58200E+01
   2  4  8  9.68238E-02  1.09360E+02
   2  4  9  1.37175E-01  1.09530E+02
   2  4 10  1.13749E-02  1.14740E+02
   2  5  5  1.42253E-02  6.40940E+02
   2  5  6  2.56412E-02  6.73910E+02
   2  5  7  5.02067E-02  6.75500E+02
   2  5  8  1.57957E-02  7.29040E+02
   2  5  9  2.33060E-02  7.29210E+02
   2  5 10  2.24577E-03  7.34420E+02
   2  6  6  4.09652E-04  7.06880E+02
   2  6  7  6.68243E-04  7.08470E+02
   2  6  8  2.32428E-04  7.62010E+02
   2  6  9  4.40741E-03  7.62180E+02
   2  6 10  1.77081E-03  7.67390E+02
   2  7  7  1.17810E-03  7.10060E+02
   2  7  8  4.46042E-03  7.63600E+02
   2  7  9  3.23254E-03  7.63770E+02
   2  7 10  3.28901E-03  7.68980E+02
   2  8  8  2.58444E-04  8.17140E+02
   2  8  9  1.35249E-02  8.17310E+02
   2  8 10  1.10876E-03  8.22520E+02
   2  9  9  3.53869E-03  8.17480E+02
   2  9 10  1.55434E-03  8.22690E+02
   3  5  0  4.03768E-03  6.27800E+02
   3  7  0  9.18115E-06  6.70400E+02
   3  8  0  1.40199E-03  7.18320E+02
   3 10  0  8.27386E-05  7.26020E+02
   3  5  5  5.72017E-03  5.31530E+02
   3  5  6  1.04744E-01  5.64500E+02
   3  5  7  8.48542E-03  5.66090E+02
   3  5  8  3.52272E-03  6.19630E+02
   3  5  9  6.29489E-03  6.19800E+02
   3  5 10  8.72234E-04  6.25010E+02
   3  6  6  8.91640E-02  5.97470E+02
   3  6  7  3.09321E-01  5.99060E+02
   3  6  8  6.45901E-02  6.52600E+02
   3  6  9  1.25120E-01  6.52770E+02
   3  6 10  9.30123E-03  6.57980E+02
   3  7  7  8.61400E-03  6.00650E+02
   3  7  8  7.55051E-02  6.54190E+02
   3  7  9  1.14600E-02  6.54360E+02
   3  7 10  6.69397E-04  6.59570E+02
   3  8  8  2.94353E-02  7.07730E+02
   3  8  9  1.34354E-01  7.07900E+02
   3  8 10  3.10265E-04  7.13110E+02
   3  9  9  6.45717E-03  7.08070E+02
   3  9 10  5.27395E-04  7.13280E+02
   4  5  0  3.75953E-03  6.15300E+02
   4  6  0  4.56623E-06  6.50100E+02
   4  7  0  4.45063E-06  6.56800E+02
   4  8  0  1.14991E-04  7.04800E+02
   4  9  0  1.28521E-03  7.04800E+02
   4 10  0  7.69576E-05  7.13160E+02
   4  5  5  5.47610E-03  5.18670E+02
   4  5  6  3.75614E-03  5.51640E+02
   4  5  7  1.02560E-01  5.53230E+02
   4  5  8  4.09120E-03  6.06770E+02
   4  5  9  5.60270E-03  6.06940E+02
   4  5 10  8.34691E-04  6.12150E+02
   4  6  6  1.43545E-03  5.84610E+02
   4  6  7  1.55075E-01  5.86200E+02
   4  6  8  3.86376E-03  6.39740E+02
   4  6  9  3.74865E-02  6.39910E+02
   4  6 10  2.90883E-04  6.45120E+02
   4  7  7  2.29412E-01  5.87790E+02
   4  7  8  9.02988E-02  6.41330E+02
   4  7  9  1.34973E-01  6.41500E+02
   4  7 10  9.09931E-03  6.46710E+02
   4  8  8  5.93307E-03  6.94870E+02
   4  8  9  1.20726E-01  6.95040E+02
   4  8 10  4.31648E-04  7.00250E+02
   4  9  9  8.28033E-02  6.95210E+02
   4  9 10  6.04329E-04  7.00420E+02
   5  8  8  1.07986E-03  7.51900E+01
   5  8  9  2.33924E-02  7.53600E+01
   5  8 10  2.57210E-02  8.05700E+01
   5  9  9  6.79262E-03  7.55300E+01
   5  9 10  3.82746E-02  8.07400E+01
   6  8  0  3.89240E-06  5.51300E+01
   6 10  0  3.74790E-07  6.05100E+01
   7  8  0  3.49259E-07  5.35400E+01
   7  9  0  3.18269E-06  5.37100E+01
   7 10  0  1.15860E-07  5.89200E+01
   2 30 30  2.58014E-01  3.13991E+01
   3 30  0  2.04719E-10  1.28600E+01
   5 30  0  1.44183E-05  3.40828E+01
   5 30 30  9.04726E-01  2.23033E+01
   6 30 30  9.99996E-01  4.28322E+01
   7 30 30  9.99996E-01  4.13518E+01
 *** Electron scaled bremss x-section,  ZEQ = 1.17510E+01,  NDATA =  57
 1.00E+03 5.97088E+00 6.03236E+00 6.09128E+00 6.14565E+00 6.19595E+00
          6.28670E+00 6.36354E+00 6.42710E+00 6.47850E+00 6.52017E+00
          6.55555E+00 6.58578E+00 6.61186E+00 6.63493E+00 6.65718E+00
          6.68041E+00 6.70427E+00 6.72756E+00 6.74915E+00 6.76967E+00
          6.78913E+00 6.79798E+00 6.80689E+00 6.81427E+00 6.82221E+00
          6.82416E+00 6.82572E+00 6.82590E+00 6.82607E+00 6.82608E+00
          6.82611E+00 6.82613E+00                                     5.659E+00
 1.50E+03 7.08706E+00 7.14792E+00 7.20550E+00 7.25729E+00 7.30394E+00
          7.38499E+00 7.44833E+00 7.49439E+00 7.52470E+00 7.54244E+00
          7.55193E+00 7.55439E+00 7.55081E+00 7.54265E+00 7.53322E+00
          7.52533E+00 7.51876E+00 7.51224E+00 7.50509E+00 7.49960E+00
          7.49813E+00 7.49795E+00 7.49508E+00 7.49015E+00 7.48755E+00
          7.48771E+00 7.48676E+00 7.48652E+00 7.48648E+00 7.48648E+00
          7.48657E+00 7.48647E+00                                     6.458E+00
 2.00E+03 7.92162E+00 7.98817E+00 8.04933E+00 8.10101E+00 8.14436E+00
          8.21228E+00 8.25597E+00 8.27934E+00 8.28505E+00 8.27713E+00
          8.26077E+00 8.23699E+00 8.20615E+00 8.16986E+00 8.13272E+00
          8.09880E+00 8.06803E+00 8.03897E+00 8.01096E+00 7.98708E+00
          7.96899E+00 7.96008E+00 7.94840E+00 7.93640E+00 7.92630E+00
          7.92478E+00 7.92236E+00 7.92191E+00 7.92174E+00 7.92171E+00
          7.92180E+00 7.92170E+00                                     7.027E+00
 3.00E+03 9.13713E+00 9.21960E+00 9.29156E+00 9.34505E+00 9.38245E+00
          9.42262E+00 9.42333E+00 9.39771E+00 9.35103E+00 9.28920E+00
          9.21963E+00 9.14492E+00 9.06700E+00 8.98846E+00 8.91173E+00
          8.83941E+00 8.77195E+00 8.70891E+00 8.64993E+00 8.59542E+00
          8.54632E+00 8.52380E+00 8.50069E+00 8.48133E+00 8.46136E+00
          8.45641E+00 8.45238E+00 8.45185E+00 8.45147E+00 8.45141E+00
          8.45140E+00 8.45136E+00                                     7.802E+00
 4.00E+03 1.00223E+01 1.01148E+01 1.01923E+01 1.02435E+01 1.02719E+01
          1.02808E+01 1.02382E+01 1.01657E+01 1.00714E+01 9.96293E+00
          9.84993E+00 9.73505E+00 9.61959E+00 9.50572E+00 9.39522E+00
          9.29047E+00 9.19243E+00 9.10154E+00 9.01814E+00 8.94186E+00
          8.87225E+00 8.83978E+00 8.80766E+00 8.78205E+00 8.75538E+00
          8.74882E+00 8.74358E+00 8.74289E+00 8.74239E+00 8.74231E+00
          8.74227E+00 8.74227E+00                                     8.312E+00
 5.00E+03 1.07249E+01 1.08088E+01 1.08776E+01 1.09200E+01 1.09393E+01
          1.09283E+01 1.08587E+01 1.07483E+01 1.06080E+01 1.04516E+01
          1.02951E+01 1.01421E+01 9.99246E+00 9.84801E+00 9.71100E+00
          9.58407E+00 9.46655E+00 9.35508E+00 9.24757E+00 9.14860E+00
          9.06289E+00 9.02415E+00 8.98511E+00 8.95340E+00 8.92216E+00
          8.91446E+00 8.90826E+00 8.90748E+00 8.90686E+00 8.90679E+00
          8.90674E+00 8.90674E+00                                     8.674E+00
 6.00E+03 1.12936E+01 1.13765E+01 1.14417E+01 1.14760E+01 1.14836E+01
          1.14423E+01 1.13359E+01 1.11863E+01 1.10067E+01 1.08127E+01
          1.06222E+01 1.04389E+01 1.02618E+01 1.00920E+01 9.93180E+00
          9.78366E+00 9.64661E+00 9.51635E+00 9.39023E+00 9.27397E+00
          9.17355E+00 9.12849E+00 9.08356E+00 9.04755E+00 9.01239E+00
          9.00375E+00 8.99681E+00 8.99595E+00 8.99525E+00 8.99516E+00
          8.99512E+00 8.99512E+00                                     8.943E+00
 8.00E+03 1.21760E+01 1.22644E+01 1.23271E+01 1.23450E+01 1.23250E+01
          1.22101E+01 1.20198E+01 1.17946E+01 1.15498E+01 1.12992E+01
          1.10584E+01 1.08294E+01 1.06097E+01 1.03992E+01 1.02000E+01
          1.00145E+01 9.84229E+00 9.68023E+00 9.52618E+00 9.38327E+00
          9.25678E+00 9.20061E+00 9.14613E+00 9.10380E+00 9.06214E+00
          9.05210E+00 9.04404E+00 9.04298E+00 9.04220E+00 9.04210E+00
          9.04203E+00 9.04203E+00                                     9.308E+00
 1.00E+04 1.28616E+01 1.29362E+01 1.29816E+01 1.29762E+01 1.29285E+01
          1.27519E+01 1.24968E+01 1.22101E+01 1.19088E+01 1.16075E+01
          1.13223E+01 1.10541E+01 1.07997E+01 1.05573E+01 1.03293E+01
          1.01169E+01 9.91939E+00 9.73251E+00 9.55362E+00 9.38740E+00
          9.24050E+00 9.17515E+00 9.11258E+00 9.06493E+00 9.01831E+00
          9.00712E+00 8.99817E+00 8.99700E+00 8.99615E+00 8.99602E+00
          8.99595E+00 8.99593E+00                                     9.538E+00
 1.50E+04 1.40747E+01 1.41125E+01 1.41131E+01 1.40489E+01 1.39326E+01
          1.36089E+01 1.32072E+01 1.27925E+01 1.23828E+01 1.19898E+01
          1.16257E+01 1.12875E+01 1.09703E+01 1.06688E+01 1.03863E+01
          1.01231E+01 9.87753E+00 9.64458E+00 9.42113E+00 9.21287E+00
          9.02573E+00 8.94023E+00 8.86008E+00 8.80168E+00 8.74605E+00
          8.73276E+00 8.72230E+00 8.72095E+00 8.71995E+00 8.71980E+00
          8.71971E+00 8.71968E+00                                     9.828E+00
 2.00E+04 1.52074E+01 1.50383E+01 1.48549E+01 1.46477E+01 1.44251E+01
          1.39675E+01 1.34993E+01 1.30382E+01 1.25893E+01 1.21557E+01
          1.17413E+01 1.13463E+01 1.09734E+01 1.06204E+01 1.02888E+01
          9.97639E+00 9.68398E+00 9.41221E+00 9.16130E+00 8.92917E+00
          8.71998E+00 8.63120E+00 8.55893E+00 8.50869E+00 8.40791E+00
          8.36706E+00 8.37343E+00 8.37931E+00 8.37599E+00 8.37392E+00
          8.37748E+00 8.37514E+00                                     9.926E+00
 3.00E+04 1.62290E+01 1.60085E+01 1.57651E+01 1.54832E+01 1.51766E+01
          1.45457E+01 1.39077E+01 1.32939E+01 1.27115E+01 1.21644E+01
          1.16538E+01 1.11799E+01 1.07387E+01 1.03240E+01 9.93943E+00
          9.58282E+00 9.25194E+00 8.94263E+00 8.65200E+00 8.38135E+00
          8.13147E+00 8.01579E+00 7.91191E+00 7.83665E+00 7.73265E+00
          7.69695E+00 7.70114E+00 7.70560E+00 7.70204E+00 7.70019E+00
          7.70286E+00 7.70124E+00                                     9.950E+00
 4.00E+04 1.68318E+01 1.66071E+01 1.63445E+01 1.60178E+01 1.56476E+01
          1.48672E+01 1.40758E+01 1.33348E+01 1.26525E+01 1.20285E+01
          1.14590E+01 1.09398E+01 1.04616E+01 1.00128E+01 9.59723E+00
          9.21406E+00 8.85734E+00 8.51880E+00 8.19302E+00 7.88576E+00
          7.59791E+00 7.45884E+00 7.32812E+00 7.23448E+00 7.14631E+00
          7.12325E+00 7.11562E+00 7.11587E+00 7.11365E+00 7.11290E+00
          7.11359E+00 7.11320E+00                                     9.894E+00
 5.00E+04 1.74124E+01 1.70693E+01 1.67005E+01 1.62894E+01 1.58543E+01
          1.49829E+01 1.41273E+01 1.33239E+01 1.25788E+01 1.18937E+01
          1.12700E+01 1.07048E+01 1.01915E+01 9.71680E+00 9.27908E+00
          8.87554E+00 8.49828E+00 8.13930E+00 7.79163E+00 7.45469E+00
          7.13000E+00 6.97493E+00 6.83079E+00 6.72988E+00 6.64626E+00
          6.62967E+00 6.61429E+00 6.61223E+00 6.61103E+00 6.61081E+00
          6.61083E+00 6.61075E+00                                     9.815E+00
 6.00E+04 1.79353E+01 1.74455E+01 1.69493E+01 1.64447E+01 1.59451E+01
          1.50004E+01 1.41098E+01 1.32731E+01 1.24911E+01 1.17653E+01
          1.11004E+01 1.04971E+01 9.95226E+00 9.45321E+00 8.99249E+00
          8.56602E+00 8.16664E+00 7.79073E+00 7.43249E+00 7.08011E+00
          6.72766E+00 6.55878E+00 6.40729E+00 6.30569E+00 6.21600E+00
          6.19837E+00 6.18211E+00 6.17998E+00 6.17868E+00 6.17844E+00
          6.17853E+00 6.17835E+00                                     9.733E+00
 8.00E+04 1.85290E+01 1.79404E+01 1.73465E+01 1.67462E+01 1.61553E+01
          1.50490E+01 1.40272E+01 1.30945E+01 1.22448E+01 1.14687E+01
          1.07620E+01 1.01245E+01 9.54488E+00 9.00970E+00 8.51208E+00
          8.05171E+00 7.62170E+00 7.21743E+00 6.83246E+00 6.45037E+00
          6.06315E+00 5.87808E+00 5.71609E+00 5.61033E+00 5.51052E+00
          5.48924E+00 5.47189E+00 5.46980E+00 5.46827E+00 5.46800E+00
          5.46799E+00 5.46780E+00                                     9.592E+00
 1.00E+05 1.89595E+01 1.82605E+01 1.75659E+01 1.68823E+01 1.62240E+01
          1.50154E+01 1.39206E+01 1.29272E+01 1.20252E+01 1.12054E+01
          1.04617E+01 9.79467E+00 9.19155E+00 8.63722E+00 8.11953E+00
          7.63544E+00 7.18127E+00 6.75264E+00 6.34525E+00 5.94345E+00
          5.53829E+00 5.34348E+00 5.17106E+00 5.05699E+00 4.94974E+00
          4.92436E+00 4.90606E+00 4.90416E+00 4.90227E+00 4.90196E+00
          4.90185E+00 4.90171E+00                                     9.471E+00
 1.50E+05 1.95622E+01 1.87272E+01 1.78991E+01 1.70863E+01 1.63044E+01
          1.48720E+01 1.35997E+01 1.24838E+01 1.14998E+01 1.06283E+01
          9.85238E+00 9.15662E+00 8.52164E+00 7.92978E+00 7.37228E+00
          6.84770E+00 6.35879E+00 5.89672E+00 5.45619E+00 5.02661E+00
          4.60100E+00 4.39370E+00 4.19928E+00 4.05976E+00 3.93571E+00
          3.90730E+00 3.88525E+00 3.88264E+00 3.88050E+00 3.88021E+00
          3.87999E+00 3.87992E+00                                     9.256E+00
 2.00E+05 2.00653E+01 1.90242E+01 1.80191E+01 1.70794E+01 1.62094E+01
          1.46607E+01 1.33197E+01 1.21503E+01 1.11215E+01 1.02098E+01
          9.40136E+00 8.67854E+00 8.02341E+00 7.41870E+00 6.84723E+00
          6.30146E+00 5.78876E+00 5.30970E+00 4.85838E+00 4.42045E+00
          3.98479E+00 3.76931E+00 3.55897E+00 3.40121E+00 3.26748E+00
          3.23650E+00 3.21146E+00 3.20854E+00 3.20614E+00 3.20577E+00
          3.20559E+00 3.20556E+00                                     9.131E+00
 3.00E+05 2.07620E+01 1.94702E+01 1.82479E+01 1.71482E+01 1.61589E+01
          1.44238E+01 1.29541E+01 1.16997E+01 1.06251E+01 9.68601E+00
          8.85054E+00 8.10020E+00 7.41693E+00 6.78526E+00 6.19024E+00
          5.62426E+00 5.09201E+00 4.60050E+00 4.13986E+00 3.69191E+00
          3.24451E+00 3.02175E+00 2.80271E+00 2.63511E+00 2.48501E+00
          2.44917E+00 2.42039E+00 2.41701E+00 2.41418E+00 2.41378E+00
          2.41353E+00 2.41352E+00                                     9.098E+00
 4.00E+05 2.13294E+01 1.98423E+01 1.84594E+01 1.72570E+01 1.62013E+01
          1.43620E+01 1.28250E+01 1.15159E+01 1.04016E+01 9.43506E+00
          8.57531E+00 7.80080E+00 7.09368E+00 6.43982E+00 5.82894E+00
          5.25460E+00 4.71616E+00 4.21479E+00 3.74549E+00 3.28980E+00
          2.83792E+00 2.61292E+00 2.39160E+00 2.21988E+00 2.05662E+00
          2.01727E+00 1.98597E+00 1.98188E+00 1.97885E+00 1.97851E+00
          1.97813E+00 1.97810E+00                                     9.230E+00
 5.00E+05 2.18422E+01 2.02052E+01 1.87008E+01 1.74246E+01 1.63219E+01
          1.43992E+01 1.28100E+01 1.14630E+01 1.03194E+01 9.32979E+00
          8.44811E+00 7.65174E+00 6.92584E+00 6.25749E+00 5.63478E+00
          5.04993E+00 4.50137E+00 3.98931E+00 3.51304E+00 3.05412E+00
          2.59799E+00 2.36956E+00 2.14340E+00 1.96566E+00 1.79236E+00
          1.74976E+00 1.71603E+00 1.71169E+00 1.70842E+00 1.70801E+00
          1.70767E+00 1.70752E+00                                     9.446E+00
 6.00E+05 2.22979E+01 2.05480E+01 1.89534E+01 1.76240E+01 1.64875E+01
          1.44950E+01 1.28593E+01 1.14835E+01 1.03172E+01 9.30820E+00
          8.40831E+00 7.59453E+00 6.85303E+00 6.17149E+00 5.53729E+00
          4.94198E+00 4.38354E+00 3.86156E+00 3.37606E+00 2.91299E+00
          2.45163E+00 2.21935E+00 1.98713E+00 1.80209E+00 1.61935E+00
          1.57391E+00 1.53779E+00 1.53321E+00 1.52969E+00 1.52923E+00
          1.52889E+00 1.52869E+00                                     9.705E+00
 8.00E+05 2.30571E+01 2.11598E+01 1.94479E+01 1.80500E+01 1.68670E+01
