 PENELOPE (v. 2014)  Material data file ...............
 Material: SiO2                                                          
 Mass density = 2.65000000E+00 g/cm**3
 Number of elements in the molecule =  2
   atomic number = 14,  atoms/molecule = 1.00000000E+00
   atomic number =  8,  atoms/molecule = 2.00000000E+00
 Mean excitation energy = 1.25663004E+02 eV
 Number of oscillators =  8 (E/P inelastic model)
   1  2.00000000E+00  0.00000000E+00  8.55837409E+00   0  30
   2  1.00000000E+01  1.35880000E+01  3.18524194E+01   0  30
   3  4.00000000E+00  2.84800000E+01  6.45780967E+01   8  30
   4  2.00000000E+00  1.04000000E+02  2.33146070E+02  14   3
   5  4.00000000E+00  1.04000000E+02  2.33250767E+02  14   4
   6  2.00000000E+00  1.54000000E+02  3.45151169E+02  14   2
   7  4.00000000E+00  5.38000000E+02  1.20558121E+03   8   1
   8  2.00000000E+00  1.84400000E+03  4.13200787E+03  14   1
 Number of shells =  8 (Compton IA model)
   1  2.00000000E+00  0.00000000E+00  1.55351366E+00   0  30
   2  1.00000000E+01  1.35880000E+01  4.86602400E-01   0  30
   3  4.00000000E+00  2.84800000E+01  5.77977000E-01   8  30
   4  4.00000000E+00  1.04000000E+02  1.49030000E-01  14   4
   5  2.00000000E+00  1.04000000E+02  1.48493000E-01  14   3
   6  2.00000000E+00  1.54000000E+02  2.74105000E-01  14   2
   7  4.00000000E+00  5.38000000E+02  1.13183000E-01   8   1
   8  2.00000000E+00  1.84400000E+03  6.32596000E-02  14   1
 *** RELAX:  Z = 14,  no. of shells =  6,  no. of transitions =   51
   1 1s1/2 2  1.84400E+03  4.30000E-01  6.32596E-02
   2 2s1/2 2  1.54000E+02  9.00000E-01  2.74105E-01
   3 2p1/2 2  1.04000E+02  5.00000E-02  1.48493E-01
   4 2p3/2 4  1.04000E+02  5.00000E-02  1.49030E-01
   5 3s1/2 2  1.34600E+01  0.00000E+00  1.03443E+00
   6 3p1/2 2  8.15100E+00  0.00000E+00  7.43235E-01
   1  3  0  1.59791E-02  1.73939E+03
   1  4  0  3.17052E-02  1.73998E+03
   1  6  0  2.72402E-04  1.83596E+03
   1  7  0  5.40444E-04  1.83596E+03
   1  2  2  7.47954E-02  1.52540E+03
   1  2  3  8.01214E-02  1.56828E+03
   1  2  4  1.56131E-01  1.56897E+03
   1  2  5  1.41124E-02  1.66332E+03
   1  2  6  1.95584E-03  1.67040E+03
   1  2  7  3.81585E-03  1.67043E+03
   1  3  3  1.39905E-02  1.61116E+03
   1  3  4  3.56408E-01  1.61185E+03
   1  3  5  6.76231E-03  1.70620E+03
   1  3  6  6.64732E-04  1.71328E+03
   1  3  7  7.97675E-03  1.71331E+03
   1  4  4  2.03104E-01  1.61254E+03
   1  4  5  1.31982E-02  1.70689E+03
   1  4  6  7.96407E-03  1.71397E+03
   1  4  7  9.16547E-03  1.71400E+03
   1  5  5  6.64748E-04  1.80124E+03
   1  5  6  1.66185E-04  1.80832E+03
   1  5  7  3.25975E-04  1.80835E+03
   1  6  6  6.39199E-06  1.81540E+03
   1  6  7  1.08669E-04  1.81543E+03
   1  7  7  6.39185E-05  1.81546E+03
   2  6  0  5.83271E-06  1.55240E+02
   2  7  0  1.07340E-05  1.45030E+02
   2  5  5  1.03158E-02  1.24290E+02
   2  5  6  5.00684E-03  1.31370E+02
   2  5  7  9.95440E-03  1.31400E+02
   2  6  6  3.23120E-05  1.38450E+02
   2  7  7  6.62381E-05  1.38510E+02
   3  5  0  4.72000E-05  9.50400E+01
   3  7  0  1.82830E-09  1.02150E+02
   3  5  5  6.76285E-02  8.14100E+01
   3  5  6  5.54847E-01  8.84900E+01
   3  5  7  3.51351E-02  8.85200E+01
   3  6  6  7.24466E-02  9.55700E+01
   3  6  7  2.62434E-01  9.56000E+01
   3  7  7  7.46220E-03  9.56300E+01
   4  5  0  4.42068E-05  9.43500E+01
   4  6  0  8.54246E-10  1.00630E+02
   4  7  0  8.43116E-10  1.01460E+02
   4  5  5  6.56816E-02  8.07200E+01
   4  5  6  1.73500E-02  8.78000E+01
   4  5  7  5.73636E-01  8.78300E+01
   4  6  6  1.08438E-03  9.48800E+01
   4  6  7  1.37565E-01  9.49100E+01
   4  7  7  2.04639E-01  9.49400E+01
   2 30  0  3.26940E-04  4.33570E+01
   2 30 30  9.74281E-01  3.11037E+01
 *** RELAX:  Z =  8,  no. of shells =  4,  no. of transitions =    8
   1 1s1/2 2  5.38000E+02  1.33383E-01  1.13183E-01
   2 2s1/2 2  2.84800E+01  0.00000E+00  5.77977E-01
   3 2p1/2 2  1.36200E+01  0.00000E+00  3.49407E-01
   4 2p3/2 2  1.36200E+01  0.00000E+00  3.49884E-01
   1  3  0  1.90768E-03  5.24900E+02
   1  4  0  3.80027E-03  5.24900E+02
   1  2  2  1.78644E-01  4.78820E+02
   1  2  3  1.16224E-01  4.93860E+02
   1  2  4  2.30418E-01  4.93900E+02
   1  3  3  1.10822E-02  5.08900E+02
   1  3  4  2.91115E-01  5.08940E+02
   1  4  4  1.66809E-01  5.08980E+02
 *** Electron ionisation cross sections,  IZ = 14,  NSHELL =  4,  NDATA = 306
 4.00000E+01 0.00000E+00 0.00000E+00 0.00000E+00 0.00000E+00
 4.50000E+01 0.00000E+00 0.00000E+00 0.00000E+00 0.00000E+00
 5.00000E+01 0.00000E+00 0.00000E+00 0.00000E+00 0.00000E+00
 5.50000E+01 0.00000E+00 0.00000E+00 0.00000E+00 0.00000E+00
 6.00000E+01 0.00000E+00 0.00000E+00 0.00000E+00 0.00000E+00
 7.00000E+01 0.00000E+00 0.00000E+00 0.00000E+00 0.00000E+00
 8.00000E+01 0.00000E+00 0.00000E+00 0.00000E+00 0.00000E+00
 9.00000E+01 0.00000E+00 0.00000E+00 0.00000E+00 0.00000E+00
 1.00000E+02 0.00000E+00 0.00000E+00 0.00000E+00 0.00000E+00
 1.04000E+02 0.00000E+00 0.00000E+00 0.00000E+00 0.00000E+00
 1.04000E+02 0.00000E+00 0.00000E+00 0.00000E+00 0.00000E+00
 1.05040E+02 0.00000E+00 0.00000E+00 2.44789E-20 5.01568E-20
 1.06482E+02 0.00000E+00 0.00000E+00 5.91293E-20 1.21114E-19
 1.07945E+02 0.00000E+00 0.00000E+00 9.49492E-20 1.94424E-19
 1.09427E+02 0.00000E+00 0.00000E+00 1.31830E-19 2.69866E-19
 1.10000E+02 0.00000E+00 0.00000E+00 1.46215E-19 2.99281E-19
 1.10930E+02 0.00000E+00 0.00000E+00 1.69666E-19 3.47226E-19
 1.12453E+02 0.00000E+00 0.00000E+00 2.08354E-19 4.26297E-19
 1.13997E+02 0.00000E+00 0.00000E+00 2.47795E-19 5.06878E-19
 1.15562E+02 0.00000E+00 0.00000E+00 2.87893E-19 5.88774E-19
 1.17149E+02 0.00000E+00 0.00000E+00 3.28555E-19 6.71799E-19
 1.18758E+02 0.00000E+00 0.00000E+00 3.69692E-19 7.55775E-19
 1.20389E+02 0.00000E+00 0.00000E+00 4.11221E-19 8.40530E-19
 1.22042E+02 0.00000E+00 0.00000E+00 4.53060E-19 9.25902E-19
 1.23718E+02 0.00000E+00 0.00000E+00 4.95132E-19 1.01173E-18
 1.25000E+02 0.00000E+00 0.00000E+00 5.27051E-19 1.07684E-18
 1.25417E+02 0.00000E+00 0.00000E+00 5.37365E-19 1.09788E-18
 1.27139E+02 0.00000E+00 0.00000E+00 5.79689E-19 1.18421E-18
 1.28885E+02 0.00000E+00 0.00000E+00 6.22040E-19 1.27057E-18
 1.30654E+02 0.00000E+00 0.00000E+00 6.64357E-19 1.35686E-18
 1.32449E+02 0.00000E+00 0.00000E+00 7.06581E-19 1.44295E-18
 1.34267E+02 0.00000E+00 0.00000E+00 7.48660E-19 1.52874E-18
 1.36111E+02 0.00000E+00 0.00000E+00 7.90543E-19 1.61413E-18
 1.37980E+02 0.00000E+00 0.00000E+00 8.32183E-19 1.69902E-18
 1.40000E+02 0.00000E+00 0.00000E+00 8.76236E-19 1.78882E-18
 1.41796E+02 0.00000E+00 0.00000E+00 9.14564E-19 1.86695E-18
 1.43743E+02 0.00000E+00 0.00000E+00 9.55229E-19 1.94984E-18
 1.45717E+02 0.00000E+00 0.00000E+00 9.95496E-19 2.03192E-18
 1.47718E+02 0.00000E+00 0.00000E+00 1.03533E-18 2.11313E-18
 1.50000E+02 0.00000E+00 0.00000E+00 1.07957E-18 2.20331E-18
 1.51802E+02 0.00000E+00 0.00000E+00 1.11361E-18 2.27269E-18
 1.54000E+02 0.00000E+00 0.00000E+00 1.15406E-18 2.35514E-18
 1.54000E+02 0.00000E+00 0.00000E+00 1.15406E-18 2.35514E-18
 1.55540E+02 0.00000E+00 1.31556E-20 1.18171E-18 2.41151E-18
 1.56000E+02 0.00000E+00 1.70800E-20 1.18986E-18 2.42813E-18
 1.57676E+02 0.00000E+00 3.13496E-20 1.21995E-18 2.48921E-18
 1.59841E+02 0.00000E+00 4.97044E-20 1.25772E-18 2.56583E-18
 1.62036E+02 0.00000E+00 6.81917E-20 1.29479E-18 2.64098E-18
 1.64261E+02 0.00000E+00 8.67847E-20 1.33116E-18 2.71470E-18
 1.66517E+02 0.00000E+00 1.05457E-19 1.36686E-18 2.78703E-18
 1.68803E+02 0.00000E+00 1.24185E-19 1.40191E-18 2.85804E-18
 1.71121E+02 0.00000E+00 1.42944E-19 1.43632E-18 2.92776E-18
 1.73471E+02 0.00000E+00 1.61712E-19 1.47013E-18 2.99625E-18
 1.75000E+02 0.00000E+00 1.73783E-19 1.49157E-18 3.03970E-18
 1.75853E+02 0.00000E+00 1.80468E-19 1.50334E-18 3.06357E-18
 1.78268E+02 0.00000E+00 1.99191E-19 1.53599E-18 3.12975E-18
 1.80716E+02 0.00000E+00 2.17863E-19 1.56808E-18 3.19485E-18
 1.83197E+02 0.00000E+00 2.36466E-19 1.59964E-18 3.25888E-18
 1.85713E+02 0.00000E+00 2.54982E-19 1.63065E-18 3.32183E-18
 1.88263E+02 0.00000E+00 2.73395E-19 1.66110E-18 3.38368E-18
 1.90848E+02 0.00000E+00 2.91691E-19 1.69100E-18 3.44440E-18
 1.93469E+02 0.00000E+00 3.09855E-19 1.72032E-18 3.50397E-18
 1.96126E+02 0.00000E+00 3.27874E-19 1.74908E-18 3.56237E-18
 1.98819E+02 0.00000E+00 3.45736E-19 1.77724E-18 3.61958E-18
 2.00000E+02 0.00000E+00 3.53441E-19 1.78929E-18 3.64405E-18
 2.01549E+02 0.00000E+00 3.63429E-19 1.80482E-18 3.67559E-18
 2.04317E+02 0.00000E+00 3.80942E-19 1.83179E-18 3.73036E-18
 2.07122E+02 0.00000E+00 3.98265E-19 1.85816E-18 3.78389E-18
 2.09967E+02 0.00000E+00 4.15390E-19 1.88391E-18 3.83614E-18
 2.12850E+02 0.00000E+00 4.32306E-19 1.90904E-18 3.88710E-18
 2.15773E+02 0.00000E+00 4.49008E-19 1.93354E-18 3.93675E-18
 2.18736E+02 0.00000E+00 4.65487E-19 1.95741E-18 3.98511E-18
 2.20000E+02 0.00000E+00 4.72382E-19 1.96731E-18 4.00516E-18
 2.21739E+02 0.00000E+00 4.81736E-19 1.98066E-18 4.03218E-18
 2.24784E+02 0.00000E+00 4.97750E-19 2.00328E-18 4.07796E-18
 2.27871E+02 0.00000E+00 5.13523E-19 2.02529E-18 4.12246E-18
 2.31000E+02 0.00000E+00 5.29050E-19 2.04668E-18 4.16569E-18
 2.38604E+02 0.00000E+00 5.64639E-19 2.09501E-18 4.26330E-18
 2.43602E+02 0.00000E+00 5.86473E-19 2.12414E-18 4.32206E-18
 2.50000E+02 0.00000E+00 6.12794E-19 2.15861E-18 4.39152E-18
 2.56892E+02 0.00000E+00 6.39291E-19 2.19243E-18 4.45962E-18
 2.65348E+02 0.00000E+00 6.69449E-19 2.22965E-18 4.53448E-18
 2.70907E+02 0.00000E+00 6.87971E-19 2.25179E-18 4.57897E-18
 2.79825E+02 0.00000E+00 7.15685E-19 2.28381E-18 4.64332E-18
 2.85686E+02 0.00000E+00 7.32633E-19 2.30273E-18 4.68133E-18
 2.95090E+02 0.00000E+00 7.57870E-19 2.32992E-18 4.73597E-18
 3.00000E+02 0.00000E+00 7.70142E-19 2.34270E-18 4.76166E-18
 3.11189E+02 0.00000E+00 7.95954E-19 2.36853E-18 4.81356E-18
 3.17707E+02 0.00000E+00 8.09703E-19 2.38159E-18 4.83975E-18
 3.28166E+02 0.00000E+00 8.29957E-19 2.39969E-18 4.87591E-18
 3.35040E+02 0.00000E+00 8.42148E-19 2.40983E-18 4.89607E-18
 3.46069E+02 0.00000E+00 8.60010E-19 2.42349E-18 4.92307E-18
 3.50000E+02 0.00000E+00 8.65905E-19 2.42765E-18 4.93123E-18
 3.53318E+02 0.00000E+00 8.70697E-19 2.43088E-18 4.93756E-18
 3.64949E+02 0.00000E+00 8.86253E-19 2.44042E-18 4.95601E-18
 3.72593E+02 0.00000E+00 8.95491E-19 2.44527E-18 4.96522E-18
 3.84858E+02 0.00000E+00 9.08817E-19 2.45091E-18 4.97571E-18
 3.92920E+02 0.00000E+00 9.16644E-19 2.45328E-18 4.98002E-18
 4.00000E+02 0.00000E+00 9.22952E-19 2.45453E-18 4.98227E-18
 4.05854E+02 0.00000E+00 9.27788E-19 2.45503E-18 4.98314E-18
 4.14356E+02 0.00000E+00 9.34231E-19 2.45500E-18 4.98292E-18
 4.27996E+02 0.00000E+00 9.43236E-19 2.45333E-18 4.97933E-18
 4.36961E+02 0.00000E+00 9.48329E-19 2.45134E-18 4.97502E-18
 4.50000E+02 0.00000E+00 9.54702E-19 2.44727E-18 4.96616E-18
 4.60799E+02 0.00000E+00 9.59155E-19 2.44282E-18 4.95657E-18
 4.75968E+02 0.00000E+00 9.64284E-19 2.43498E-18 4.93990E-18
 4.85938E+02 0.00000E+00 9.66989E-19 2.42896E-18 4.92724E-18
 5.00000E+02 0.00000E+00 9.69972E-19 2.41951E-18 4.90757E-18
 5.12448E+02 0.00000E+00 9.71854E-19 2.41037E-18 4.88863E-18
 5.29317E+02 0.00000E+00 9.73360E-19 2.39695E-18 4.86092E-18
 5.40405E+02 0.00000E+00 9.73765E-19 2.38754E-18 4.84154E-18
 5.50000E+02 0.00000E+00 9.73785E-19 2.37907E-18 4.82410E-18
 5.58194E+02 0.00000E+00 9.73582E-19 2.37163E-18 4.80878E-18
 5.69886E+02 0.00000E+00 9.72975E-19 2.36071E-18 4.78632E-18
 5.88647E+02 0.00000E+00 9.71293E-19 2.34260E-18 4.74905E-18
 6.00000E+02 0.00000E+00 9.69889E-19 2.33138E-18 4.72589E-18
 6.20760E+02 0.00000E+00 9.66643E-19 2.31043E-18 4.68267E-18
 6.33763E+02 0.00000E+00 9.64194E-19 2.29708E-18 4.65516E-18
 6.54626E+02 0.00000E+00 9.59633E-19 2.27536E-18 4.61056E-18
 6.68338E+02 0.00000E+00 9.56246E-19 2.26092E-18 4.58102E-18
 6.90339E+02 0.00000E+00 9.50344E-19 2.23757E-18 4.53342E-18
 7.00000E+02 0.00000E+00 9.47630E-19 2.22728E-18 4.51247E-18
 7.04799E+02 0.00000E+00 9.46264E-19 2.22216E-18 4.50205E-18
 7.28000E+02 0.00000E+00 9.39490E-19 2.19741E-18 4.45170E-18
 7.43249E+02 0.00000E+00 9.34875E-19 2.18117E-18 4.41865E-18
 7.83797E+02 0.00000E+00 9.21940E-19 2.13830E-18 4.33125E-18
 8.00000E+02 0.00000E+00 9.16534E-19 2.12134E-18 4.29663E-18
 8.26557E+02 0.00000E+00 9.07463E-19 2.09381E-18 4.24043E-18
 8.71650E+02 0.00000E+00 8.91670E-19 2.04794E-18 4.14684E-18
 9.00000E+02 0.00000E+00 8.81614E-19 2.01973E-18 4.08936E-18
 9.19202E+02 0.00000E+00 8.74789E-19 2.00092E-18 4.05107E-18
 9.69349E+02 0.00000E+00 8.57013E-19 1.95303E-18 3.95364E-18
 1.00000E+03 0.00000E+00 8.46230E-19 1.92465E-18 3.89595E-18
 1.02223E+03 0.00000E+00 8.38466E-19 1.90451E-18 3.85499E-18
 1.07800E+03 0.00000E+00 8.19262E-19 1.85556E-18 3.75548E-18
 1.10000E+03 0.00000E+00 8.11809E-19 1.83686E-18 3.71748E-18
 1.25000E+03 0.00000E+00 7.63214E-19 1.71827E-18 3.47659E-18
 1.40000E+03 0.00000E+00 7.18901E-19 1.61406E-18 3.26505E-18
 1.50000E+03 0.00000E+00 6.91762E-19 1.55128E-18 3.13760E-18
 1.75000E+03 0.00000E+00 6.31535E-19 1.41503E-18 2.86175E-18
 1.84400E+03 0.00000E+00 6.11464E-19 1.37196E-18 2.77467E-18
 1.84400E+03 0.00000E+00 6.11464E-19 1.37196E-18 2.77467E-18
 1.86244E+03 1.94912E-22 6.07679E-19 1.36391E-18 2.75839E-18
 1.88801E+03 4.57739E-22 6.02508E-19 1.35293E-18 2.73614E-18
 1.91394E+03 7.15614E-22 5.97356E-19 1.34200E-18 2.71396E-18
 1.94022E+03 9.68595E-22 5.92224E-19 1.33108E-18 2.69180E-18
 1.96687E+03 1.21674E-21 5.87112E-19 1.32016E-18 2.66963E-18
 1.99387E+03 1.46012E-21 5.82018E-19 1.30925E-18 2.64747E-18
 2.00000E+03 1.51420E-21 5.80876E-19 1.30680E-18 2.64249E-18
 2.02125E+03 1.69878E-21 5.76944E-19 1.29835E-18 2.62534E-18
 2.04901E+03 1.93278E-21 5.71890E-19 1.28746E-18 2.60325E-18
 2.07715E+03 2.16220E-21 5.66854E-19 1.27661E-18 2.58123E-18
 2.10567E+03 2.38709E-21 5.61838E-19 1.26579E-18 2.55929E-18
 2.13458E+03 2.60750E-21 5.56840E-19 1.25501E-18 2.53745E-18
 2.16390E+03 2.82351E-21 5.51863E-19 1.24429E-18 2.51573E-18
 2.19361E+03 3.03517E-21 5.46908E-19 1.23363E-18 2.49414E-18
 2.20000E+03 3.07975E-21 5.45854E-19 1.23137E-18 2.48955E-18
 2.22373E+03 3.24253E-21 5.41978E-19 1.22304E-18 2.47267E-18
 2.25427E+03 3.44567E-21 5.37075E-19 1.21250E-18 2.45133E-18
 2.28522E+03 3.64464E-21 5.32203E-19 1.20202E-18 2.43010E-18
 2.31660E+03 3.83949E-21 5.27362E-19 1.19159E-18 2.40897E-18
 2.34842E+03 4.03028E-21 5.22557E-19 1.18121E-18 2.38795E-18
 2.38066E+03 4.21707E-21 5.17789E-19 1.17088E-18 2.36702E-18
 2.41335E+03 4.39992E-21 5.13061E-19 1.16059E-18 2.34617E-18
 2.44649E+03 4.57888E-21 5.08375E-19 1.15035E-18 2.32542E-18
 2.48009E+03 4.75401E-21 5.03731E-19 1.14016E-18 2.30477E-18
 2.50000E+03 4.85492E-21 5.01027E-19 1.13420E-18 2.29270E-18
 2.51415E+03 4.92535E-21 4.99126E-19 1.13001E-18 2.28420E-18
 2.54867E+03 5.09297E-21 4.94557E-19 1.11990E-18 2.26374E-18
 2.58367E+03 5.25691E-21 4.90021E-19 1.10985E-18 2.24337E-18
 2.61915E+03 5.41722E-21 4.85516E-19 1.09984E-18 2.22311E-18
 2.65511E+03 5.57395E-21 4.81038E-19 1.08989E-18 2.20295E-18
 2.69157E+03 5.72715E-21 4.76584E-19 1.08000E-18 2.18291E-18
 2.72853E+03 5.87687E-21 4.72153E-19 1.07016E-18 2.16300E-18
 2.76600E+03 6.02316E-21 4.67740E-19 1.06039E-18 2.14323E-18
 2.91690E+03 6.55603E-21 4.50775E-19 1.02306E-18 2.06765E-18
 3.00000E+03 6.81893E-21 4.41974E-19 1.00373E-18 2.02849E-18
 3.07603E+03 7.04235E-21 4.34251E-19 9.86699E-19 1.99400E-18
 3.24384E+03 7.48344E-21 4.18222E-19 9.51158E-19 1.92205E-18
 3.42081E+03 7.88067E-21 4.02598E-19 9.16552E-19 1.85202E-18
 3.50000E+03 8.03863E-21 3.95982E-19 9.01942E-19 1.82246E-18
 3.60743E+03 8.23540E-21 3.87358E-19 8.82915E-19 1.78396E-18
 3.80424E+03 8.54903E-21 3.72557E-19 8.50224E-19 1.71782E-18
 4.00000E+03 8.80912E-21 3.59006E-19 8.20244E-19 1.65719E-18
 4.23064E+03 9.06021E-21 3.44364E-19 7.87842E-19 1.59166E-18
 4.46144E+03 9.26172E-21 3.30940E-19 7.58051E-19 1.53138E-18
 4.50000E+03 9.29116E-21 3.28805E-19 7.53304E-19 1.52178E-18
 4.70483E+03 9.42950E-21 3.17932E-19 7.29155E-19 1.47296E-18
 4.96150E+03 9.56457E-21 3.05351E-19 7.01268E-19 1.41659E-18
 5.00000E+03 9.58155E-21 3.03557E-19 6.97287E-19 1.40854E-18
 5.23218E+03 9.66790E-21 2.93199E-19 6.74281E-19 1.36200E-18
 5.50000E+03 9.73759E-21 2.82154E-19 6.49719E-19 1.31234E-18
 5.81863E+03 9.78694E-21 2.70127E-19 6.22944E-19 1.25822E-18
 6.00000E+03 9.80136E-21 2.63767E-19 6.08753E-19 1.22954E-18
 6.13607E+03 9.80649E-21 2.59207E-19 5.98560E-19 1.20893E-18
 6.47082E+03 9.80105E-21 2.48687E-19 5.75015E-19 1.16133E-18
 6.82384E+03 9.77232E-21 2.38534E-19 5.52332E-19 1.11549E-18
 7.00000E+03 9.75085E-21 2.33796E-19 5.41759E-19 1.09413E-18
 7.19611E+03 9.72229E-21 2.28760E-19 5.30527E-19 1.07144E-18
 7.58869E+03 9.65285E-21 2.19365E-19 5.09534E-19 1.02900E-18
 8.00000E+03 9.56590E-21 2.10382E-19 4.89341E-19 9.88167E-19
 8.43928E+03 9.46108E-21 2.01623E-19 4.69604E-19 9.48317E-19
 8.89968E+03 9.34242E-21 1.93248E-19 4.50766E-19 9.10313E-19
 9.00000E+03 9.31565E-21 1.91524E-19 4.46888E-19 9.02480E-19
 9.38520E+03 9.21048E-21 1.85215E-19 4.32633E-19 8.73653E-19
 9.89721E+03 9.06658E-21 1.77518E-19 4.15195E-19 8.38377E-19
 1.00000E+04 9.03735E-21 1.76059E-19 4.11902E-19 8.31711E-19
 1.04372E+04 8.91244E-21 1.70134E-19 3.98535E-19 8.04689E-19
 1.10000E+04 8.75137E-21 1.63099E-19 3.82633E-19 7.72624E-19
 1.16070E+04 8.57893E-21 1.56184E-19 3.66977E-19 7.41006E-19
 1.22402E+04 8.40183E-21 1.49631E-19 3.52106E-19 7.10924E-19
 1.25000E+04 8.33025E-21 1.47111E-19 3.46396E-19 6.99373E-19
 1.29080E+04 8.21928E-21 1.43337E-19 3.37851E-19 6.82104E-19
 1.40000E+04 7.93197E-21 1.34230E-19 3.17223E-19 6.40488E-19
 1.50000E+04 7.68241E-21 1.26964E-19 3.00598E-19 6.06895E-19
 1.75000E+04 7.11774E-21 1.12078E-19 2.66483E-19 5.37994E-19
 2.00000E+04 6.63046E-21 1.00611E-19 2.40098E-19 4.84708E-19
 2.20000E+04 6.28881E-21 9.31774E-20 2.22909E-19 4.49996E-19
 2.50000E+04 5.84469E-21 8.40875E-20 2.01828E-19 4.07426E-19
 3.00000E+04 5.24449E-21 7.27032E-20 1.75313E-19 3.53884E-19
 3.50000E+04 4.77976E-21 6.43719E-20 1.55800E-19 3.14483E-19
 4.00000E+04 4.40273E-21 5.80036E-20 1.40807E-19 2.84211E-19
 4.50000E+04 4.09131E-21 5.29595E-20 1.28911E-19 2.60197E-19
 5.00000E+04 3.83047E-21 4.88670E-20 1.19233E-19 2.40657E-19
 5.50000E+04 3.60867E-21 4.54791E-20 1.11200E-19 2.24439E-19
 6.00000E+04 3.41773E-21 4.26261E-20 1.04421E-19 2.10755E-19
 7.00000E+04 3.10598E-21 3.80868E-20 9.36044E-20 1.88918E-19
 8.00000E+04 2.86249E-21 3.46337E-20 8.53509E-20 1.72255E-19
 9.00000E+04 2.66712E-21 3.19186E-20 7.88436E-20 1.59120E-19
 1.00000E+05 2.50659E-21 2.97275E-20 7.35813E-20 1.48497E-19
 1.10000E+05 2.37268E-21 2.79227E-20 6.92390E-20 1.39731E-19
 1.25000E+05 2.20957E-21 2.57428E-20 6.39855E-20 1.29127E-19
 1.40000E+05 2.07861E-21 2.40209E-20 5.98287E-20 1.20737E-19
 1.50000E+05 2.00519E-21 2.30616E-20 5.75105E-20 1.16057E-19
 1.75000E+05 1.85700E-21 2.11399E-20 5.28623E-20 1.06674E-19
 2.00000E+05 1.74544E-21 1.96999E-20 4.93762E-20 9.96376E-20
 2.20000E+05 1.67397E-21 1.87869E-20 4.71656E-20 9.51754E-20
 2.50000E+05 1.58920E-21 1.76986E-20 4.45315E-20 8.98583E-20
 3.00000E+05 1.48698E-21 1.63888E-20 4.13655E-20 8.34676E-20
 3.50000E+05 1.41650E-21 1.54775E-20 3.91704E-20 7.90363E-20
 4.00000E+05 1.36598E-21 1.48162E-20 3.75851E-20 7.58363E-20
 4.50000E+05 1.32885E-21 1.43217E-20 3.64067E-20 7.34563E-20
 5.00000E+05 1.30110E-21 1.39431E-20 3.55119E-20 7.16497E-20
 5.50000E+05 1.28012E-21 1.36485E-20 3.48220E-20 7.02569E-20
 6.00000E+05 1.26418E-21 1.34163E-20 3.42844E-20 6.91713E-20
 7.00000E+05 1.24292E-21 1.30836E-20 3.35305E-20 6.76482E-20
 8.00000E+05 1.23111E-21 1.28685E-20 3.30631E-20 6.67044E-20
 9.00000E+05 1.22532E-21 1.27292E-20 3.27791E-20 6.61307E-20
 1.00000E+06 1.22349E-21 1.26408E-20 3.26181E-20 6.58057E-20
 1.10000E+06 1.22436E-21 1.25877E-20 3.25415E-20 6.56498E-20
 1.25000E+06 1.22897E-21 1.25527E-20 3.25322E-20 6.56303E-20
 1.40000E+06 1.23607E-21 1.25531E-20 3.26056E-20 6.57777E-20
 1.50000E+06 1.24167E-21 1.25664E-20 3.26845E-20 6.59355E-20
 1.75000E+06 1.25733E-21 1.26283E-20 3.29446E-20 6.64587E-20
 2.00000E+06 1.27407E-21 1.27137E-20 3.32531E-20 6.70813E-20
 2.20000E+06 1.28759E-21 1.27904E-20 3.35153E-20 6.76089E-20
 2.50000E+06 1.30760E-21 1.29116E-20 3.39155E-20 6.84152E-20
 3.00000E+06 1.33935E-21 1.31156E-20 3.45694E-20 6.97332E-20
 3.50000E+06 1.36868E-21 1.33119E-20 3.51865E-20 7.09770E-20
 4.00000E+06 1.39558E-21 1.34966E-20 3.57610E-20 7.21349E-20
 4.50000E+06 1.42041E-21 1.36693E-20 3.62939E-20 7.32091E-20
 5.00000E+06 1.44331E-21 1.38304E-20 3.67885E-20 7.42063E-20
 5.50000E+06 1.46449E-21 1.39807E-20 3.72490E-20 7.51344E-20
 6.00000E+06 1.48425E-21 1.41214E-20 3.76787E-20 7.60007E-20
 7.00000E+06 1.52004E-21 1.43778E-20 3.84597E-20 7.75752E-20
 8.00000E+06 1.55171E-21 1.46062E-20 3.91527E-20 7.89725E-20
 9.00000E+06 1.58014E-21 1.48113E-20 3.97755E-20 8.02277E-20
 1.00000E+07 1.60586E-21 1.49976E-20 4.03400E-20 8.13661E-20
 1.10000E+07 1.62928E-21 1.51681E-20 4.08560E-20 8.24065E-20
 1.25000E+07 1.66101E-21 1.53991E-20 4.15553E-20 8.38161E-20
 1.40000E+07 1.68941E-21 1.56061E-20 4.21808E-20 8.50777E-20
 1.50000E+07 1.70679E-21 1.57328E-20 4.25640E-20 8.58500E-20
 1.75000E+07 1.74584E-21 1.60180E-20 4.34261E-20 8.75871E-20
 2.00000E+07 1.77990E-21 1.62669E-20 4.41781E-20 8.91032E-20
 2.20000E+07 1.80431E-21 1.64454E-20 4.47169E-20 9.01900E-20
 2.50000E+07 1.83717E-21 1.66859E-20 4.54430E-20 9.16543E-20
 3.00000E+07 1.88422E-21 1.70305E-20 4.64838E-20 9.37523E-20
 3.50000E+07 1.92419E-21 1.73232E-20 4.73674E-20 9.55332E-20
 4.00000E+07 1.95889E-21 1.75777E-20 4.81352E-20 9.70812E-20
 4.50000E+07 1.98956E-21 1.78024E-20 4.88140E-20 9.84492E-20
 5.00000E+07 2.01703E-21 1.80039E-20 4.94213E-20 9.96742E-20
 5.50000E+07 2.04190E-21 1.81866E-20 4.99723E-20 1.00784E-19
 6.00000E+07 2.06465E-21 1.83534E-20 5.04749E-20 1.01800E-19
 7.00000E+07 2.10498E-21 1.86491E-20 5.13684E-20 1.03600E-19
 8.00000E+07 2.13997E-21 1.89056E-20 5.21430E-20 1.05161E-19
 9.00000E+07 2.17086E-21 1.91323E-20 5.28261E-20 1.06538E-19
 1.00000E+08 2.19853E-21 1.93352E-20 5.34389E-20 1.07773E-19
 1.10000E+08 2.22354E-21 1.95188E-20 5.39923E-20 1.08889E-19
 1.25000E+08 2.25714E-21 1.97651E-20 5.47361E-20 1.10389E-19
 1.40000E+08 2.28691E-21 1.99838E-20 5.53961E-20 1.11720E-19
 1.50000E+08 2.30505E-21 2.01168E-20 5.57976E-20 1.12529E-19
 1.75000E+08 2.34559E-21 2.04147E-20 5.66955E-20 1.14339E-19
 2.00000E+08 2.38074E-21 2.06727E-20 5.74738E-20 1.15908E-19
 2.20000E+08 2.40583E-21 2.08568E-20 5.80294E-20 1.17028E-19
 2.50000E+08 2.43949E-21 2.11040E-20 5.87751E-20 1.18533E-19
 3.00000E+08 2.48752E-21 2.14566E-20 5.98396E-20 1.20678E-19
 3.50000E+08 2.52815E-21 2.17549E-20 6.07397E-20 1.22493E-19
 4.00000E+08 2.56332E-21 2.20131E-20 6.15198E-20 1.24065E-19
 4.50000E+08 2.59435E-21 2.22408E-20 6.22072E-20 1.25451E-19
 5.00000E+08 2.62211E-21 2.24445E-20 6.28221E-20 1.26691E-19
 5.50000E+08 2.64722E-21 2.26288E-20 6.33784E-20 1.27812E-19
 6.00000E+08 2.67014E-21 2.27971E-20 6.38863E-20 1.28837E-19
 7.00000E+08 2.71076E-21 2.30952E-20 6.47863E-20 1.30651E-19
 8.00000E+08 2.74594E-21 2.33534E-20 6.55659E-20 1.32223E-19
 9.00000E+08 2.77698E-21 2.35812E-20 6.62536E-20 1.33610E-19
 1.00000E+09 2.80474E-21 2.37850E-20 6.68688E-20 1.34851E-19
 *** Electron ionisation cross sections,  IZ =  8,  NSHELL =  1,  NDATA = 198
 4.00000E+01 0.00000E+00
 4.50000E+01 0.00000E+00
 5.00000E+01 0.00000E+00
 5.50000E+01 0.00000E+00
 6.00000E+01 0.00000E+00
 7.00000E+01 0.00000E+00
 8.00000E+01 0.00000E+00
 9.00000E+01 0.00000E+00
 1.00000E+02 0.00000E+00
 1.10000E+02 0.00000E+00
 1.25000E+02 0.00000E+00
 1.40000E+02 0.00000E+00
 1.50000E+02 0.00000E+00
 1.75000E+02 0.00000E+00
 2.00000E+02 0.00000E+00
 2.20000E+02 0.00000E+00
 2.50000E+02 0.00000E+00
 3.00000E+02 0.00000E+00
 3.50000E+02 0.00000E+00
 4.00000E+02 0.00000E+00
 4.50000E+02 0.00000E+00
 5.00000E+02 0.00000E+00
 5.38000E+02 0.00000E+00
 5.38000E+02 0.00000E+00
 5.43380E+02 1.97422E-21
 5.50000E+02 4.35048E-21
 5.58406E+02 7.28580E-21
 5.66074E+02 9.88597E-21
 5.73847E+02 1.24488E-20
 5.81727E+02 1.49742E-20
 5.89715E+02 1.74619E-20
 5.97813E+02 1.99120E-20
 6.00000E+02 2.05617E-20
 6.06022E+02 2.23245E-20
 6.14344E+02 2.46993E-20
 6.22780E+02 2.70364E-20
 6.31332E+02 2.93359E-20
 6.40001E+02 3.15980E-20
 6.48790E+02 3.38226E-20
 6.57699E+02 3.60100E-20
 6.66730E+02 3.81603E-20
 6.75886E+02 4.02736E-20
 6.85167E+02 4.23502E-20
 6.94575E+02 4.43902E-20
 7.00000E+02 4.55375E-20
 7.04113E+02 4.63938E-20
 7.13782E+02 4.83613E-20
 7.23584E+02 5.02928E-20
 7.33520E+02 5.21887E-20
 7.43592E+02 5.40491E-20
 7.53803E+02 5.58743E-20
 7.64154E+02 5.76646E-20
 7.74648E+02 5.94202E-20
 7.85285E+02 6.11413E-20
 7.96068E+02 6.28283E-20
 8.00000E+02 6.34293E-20
 8.07000E+02 6.44814E-20
 8.51026E+02 7.05767E-20
 9.00000E+02 7.64739E-20
 9.46414E+02 8.13315E-20
 1.00000E+03 8.61847E-20
 1.05249E+03 9.02660E-20
 1.10000E+03 9.34647E-20
 1.10991E+03 9.40787E-20
 1.17046E+03 9.74700E-20
 1.23432E+03 1.00452E-19
 1.25000E+03 1.01101E-19
 1.30166E+03 1.03035E-19
 1.37267E+03 1.05233E-19
 1.40000E+03 1.05953E-19
 1.44755E+03 1.07056E-19
 1.50000E+03 1.08073E-19
 1.52653E+03 1.08516E-19
 1.60980E+03 1.09629E-19
 1.69763E+03 1.10415E-19
 1.75000E+03 1.10724E-19
 1.79024E+03 1.10891E-19
 1.88791E+03 1.11071E-19
 2.00000E+03 1.10948E-19
 2.09952E+03 1.10604E-19
 2.20000E+03 1.10085E-19
 2.33484E+03 1.09178E-19
 2.46222E+03 1.08146E-19
 2.50000E+03 1.07816E-19
 2.59655E+03 1.06933E-19
 2.73820E+03 1.05549E-19
 2.88758E+03 1.04008E-19
 3.00000E+03 1.02815E-19
 3.04511E+03 1.02332E-19
 3.21124E+03 1.00540E-19
 3.38643E+03 9.86453E-20
 3.50000E+03 9.74226E-20
 3.57117E+03 9.66608E-20
 3.76600E+03 9.46008E-20
 4.00000E+03 9.21882E-20
 4.50000E+03 8.73034E-20
 5.00000E+03 8.28284E-20
 5.50000E+03 7.87584E-20
 6.00000E+03 7.50510E-20
 7.00000E+03 6.86150E-20
 8.00000E+03 6.32125E-20
 9.00000E+03 5.86933E-20
 1.00000E+04 5.48868E-20
 1.10000E+04 5.15640E-20
 1.25000E+04 4.73353E-20
 1.40000E+04 4.38049E-20
 1.50000E+04 4.17647E-20
 1.75000E+04 3.74867E-20
 2.00000E+04 3.40910E-20
 2.20000E+04 3.18419E-20
 2.50000E+04 2.90436E-20
 3.00000E+04 2.54602E-20
 3.50000E+04 2.27788E-20
 4.00000E+04 2.06974E-20
 4.50000E+04 1.90268E-20
 5.00000E+04 1.76591E-20
 5.50000E+04 1.65209E-20
 6.00000E+04 1.55532E-20
 7.00000E+04 1.39971E-20
 8.00000E+04 1.28052E-20
 9.00000E+04 1.18608E-20
 1.00000E+05 1.10945E-20
 1.10000E+05 1.04571E-20
 1.25000E+05 9.68744E-21
 1.40000E+05 9.07701E-21
 1.50000E+05 8.73564E-21
 1.75000E+05 8.04989E-21
 2.00000E+05 7.53462E-21
 2.20000E+05 7.20753E-21
 2.50000E+05 6.81757E-21
 3.00000E+05 6.34889E-21
 3.50000E+05 6.02438E-21
 4.00000E+05 5.79073E-21
 4.50000E+05 5.61772E-21
 5.00000E+05 5.48707E-21
 5.50000E+05 5.38702E-21
 6.00000E+05 5.30971E-21
 7.00000E+05 5.20297E-21
 8.00000E+05 5.13895E-21
 9.00000E+05 5.10228E-21
 1.00000E+06 5.08379E-21
 1.10000E+06 5.07774E-21
 1.25000E+06 5.08416E-21
 1.40000E+06 5.10252E-21
 1.50000E+06 5.11902E-21
 1.75000E+06 5.16899E-21
 2.00000E+06 5.22541E-21
 2.20000E+06 5.27226E-21
 2.50000E+06 5.34260E-21
 3.00000E+06 5.45630E-21
 3.50000E+06 5.56257E-21
 4.00000E+06 5.66090E-21
 4.50000E+06 5.75177E-21
 5.00000E+06 5.83593E-21
 5.50000E+06 5.91425E-21
 6.00000E+06 5.98717E-21
 7.00000E+06 6.11960E-21
 8.00000E+06 6.23706E-21
 9.00000E+06 6.34221E-21
 1.00000E+07 6.43776E-21
 1.10000E+07 6.52504E-21
 1.25000E+07 6.64307E-21
 1.40000E+07 6.74867E-21
 1.50000E+07 6.81339E-21
 1.75000E+07 6.95882E-21
 2.00000E+07 7.08560E-21
 2.20000E+07 7.17654E-21
 2.50000E+07 7.29924E-21
 3.00000E+07 7.47458E-21
 3.50000E+07 7.62350E-21
 4.00000E+07 7.75302E-21
 4.50000E+07 7.86733E-21
 5.00000E+07 7.96988E-21
 5.50000E+07 8.06287E-21
 6.00000E+07 8.14747E-21
 7.00000E+07 8.29800E-21
 8.00000E+07 8.42870E-21
 9.00000E+07 8.54374E-21
 1.00000E+08 8.64703E-21
 1.10000E+08 8.74033E-21
 1.25000E+08 8.86581E-21
 1.40000E+08 8.97692E-21
 1.50000E+08 9.04467E-21
 1.75000E+08 9.19597E-21
 2.00000E+08 9.32723E-21
 2.20000E+08 9.42123E-21
 2.50000E+08 9.54650E-21
 3.00000E+08 9.72613E-21
 3.50000E+08 9.87748E-21
 4.00000E+08 1.00091E-20
 4.50000E+08 1.01249E-20
 5.00000E+08 1.02286E-20
 5.50000E+08 1.03224E-20
 6.00000E+08 1.04080E-20
 7.00000E+08 1.05597E-20
 8.00000E+08 1.06911E-20
 9.00000E+08 1.08071E-20
 1.00000E+09 1.09108E-20
 *** Positron ionisation cross sections,  IZ = 14,  NSHELL =  4,  NDATA = 306
 4.00000E+01 0.00000E+00 0.00000E+00 0.00000E+00 0.00000E+00
 4.50000E+01 0.00000E+00 0.00000E+00 0.00000E+00 0.00000E+00
 5.00000E+01 0.00000E+00 0.00000E+00 0.00000E+00 0.00000E+00
 5.50000E+01 0.00000E+00 0.00000E+00 0.00000E+00 0.00000E+00
 6.00000E+01 0.00000E+00 0.00000E+00 0.00000E+00 0.00000E+00
 7.00000E+01 0.00000E+00 0.00000E+00 0.00000E+00 0.00000E+00
 8.00000E+01 0.00000E+00 0.00000E+00 0.00000E+00 0.00000E+00
 9.00000E+01 0.00000E+00 0.00000E+00 0.00000E+00 0.00000E+00
 1.00000E+02 0.00000E+00 0.00000E+00 0.00000E+00 0.00000E+00
 1.04000E+02 0.00000E+00 0.00000E+00 0.00000E+00 0.00000E+00
 1.04000E+02 0.00000E+00 0.00000E+00 0.00000E+00 0.00000E+00
 1.09200E+02 0.00000E+00 0.00000E+00 1.96289E-23 4.04352E-23
 1.10000E+02 0.00000E+00 0.00000E+00 3.20410E-23 6.60571E-23
 1.10551E+02 0.00000E+00 0.00000E+00 4.35378E-23 8.98014E-23
 1.11919E+02 0.00000E+00 0.00000E+00 8.53877E-23 1.76286E-22
 1.13304E+02 0.00000E+00 0.00000E+00 1.52910E-22 3.15913E-22
 1.14707E+02 0.00000E+00 0.00000E+00 2.55291E-22 5.27725E-22
 1.16126E+02 0.00000E+00 0.00000E+00 4.03106E-22 8.33645E-22
 1.17563E+02 0.00000E+00 0.00000E+00 6.08225E-22 1.25829E-21
 1.19018E+02 0.00000E+00 0.00000E+00 8.83701E-22 1.82871E-21
 1.20491E+02 0.00000E+00 0.00000E+00 1.24364E-21 2.57416E-21
 1.21982E+02 0.00000E+00 0.00000E+00 1.70305E-21 3.52577E-21
 1.23492E+02 0.00000E+00 0.00000E+00 2.27772E-21 4.71624E-21
 1.25000E+02 0.00000E+00 0.00000E+00 2.97408E-21 6.15892E-21
 1.26567E+02 0.00000E+00 0.00000E+00 3.83888E-21 7.95069E-21
 1.28133E+02 0.00000E+00 0.00000E+00 4.85940E-21 1.00652E-20
 1.29719E+02 0.00000E+00 0.00000E+00 6.06297E-21 1.25591E-20
 1.31324E+02 0.00000E+00 0.00000E+00 7.46698E-21 1.54683E-20
 1.32949E+02 0.00000E+00 0.00000E+00 9.08873E-21 1.88288E-20
 1.34594E+02 0.00000E+00 0.00000E+00 1.09453E-20 2.26758E-20
