 PENELOPE (v. 2012)  Material data file ...............
 Material: ZnO                                                           
 Mass density = 5.61000000E+00 g/cm**3
 Number of elements in the molecule =  2
   atomic number = 30,  atoms/molecule = 1.00000000E+00
   atomic number =  8,  atoms/molecule = 1.00000000E+00
 Mean excitation energy = 2.53900375E+02 eV
 Number of oscillators = 11 (E/P inelastic model)
   1  2.00000000E+00  0.00000000E+00  1.06990772E+01   0  30
   2  1.40000000E+01  1.21200000E+01  3.84385565E+01   0  30
   3  2.00000000E+00  2.84800000E+01  8.56047782E+01   8   2
   4  4.00000000E+00  9.10000000E+01  2.72378882E+02  30   7
   5  2.00000000E+00  9.40000000E+01  2.81204569E+02  30   6
   6  2.00000000E+00  1.41000000E+02  4.21693763E+02  30   5
   7  2.00000000E+00  5.38000000E+02  1.60869435E+03   8   1
   8  4.00000000E+00  1.02400000E+03  3.06188129E+03  30   4
   9  2.00000000E+00  1.04700000E+03  3.13064072E+03  30   3
  10  2.00000000E+00  1.19800000E+03  3.58214339E+03  30   2
  11  2.00000000E+00  9.66300000E+03  2.88932807E+04  30   1
 Number of shells = 11 (Compton IA model)
   1  2.00000000E+00  0.00000000E+00  1.24268202E+00   0  30
   2  1.40000000E+01  1.21200000E+01  2.16678143E-01   0  30
   3  2.00000000E+00  2.84800000E+01  5.77977000E-01   8   2
   4  4.00000000E+00  9.10000000E+01  1.85311000E-01  30   7
   5  2.00000000E+00  9.40000000E+01  1.82703000E-01  30   6
   6  2.00000000E+00  1.41000000E+02  2.95031000E-01  30   5
   7  2.00000000E+00  5.38000000E+02  1.13183000E-01   8   1
   8  4.00000000E+00  1.02400000E+03  5.47521000E-02  30   4
   9  2.00000000E+00  1.04700000E+03  5.39403000E-02  30   3
  10  2.00000000E+00  1.19800000E+03  1.06518000E-01  30   2
  11  2.00000000E+00  9.66300000E+03  2.84671000E-02  30   1
 *** RELAX:  Z = 30,  no. of shells = 10,  no. of transitions = 165
   1 1s1/2 2  9.66300E+03  2.84671E-02
   2 2s1/2 2  1.19800E+03  1.06518E-01
   3 2p1/2 2  1.04700E+03  5.39403E-02
   4 2p3/2 4  1.02400E+03  5.47521E-02
   5 3s1/2 2  1.41000E+02  2.95031E-01
   6 3p1/2 2  9.40000E+01  1.82703E-01
   7 3p3/2 4  9.10000E+01  1.85311E-01
   8 3d3/2 4  1.20000E+01  1.62620E-01
   9 3d5/2 6  1.12000E+01  1.64072E-01
  10 4s1/2 2  9.39400E+00  1.38590E+00
   1  3  0  1.40620E-01  8.61582E+03
   1  4  0  2.73809E-01  8.63891E+03
   1  6  0  1.73890E-02  9.57203E+03
   1  7  0  3.39969E-02  9.57203E+03
   1  8  0  2.35079E-05  9.64990E+03
   1  9  0  3.39889E-05  9.64990E+03
   1  2  2  3.67202E-02  7.25360E+03
   1  2  3  4.08263E-02  7.38750E+03
   1  2  4  7.19520E-02  7.41200E+03
   1  2  5  9.96991E-03  8.30057E+03
   1  2  6  5.38738E-03  8.34426E+03
   1  2  7  9.40412E-03  8.34741E+03
   1  2  8  2.96221E-04  8.42115E+03
   1  2  9  3.99711E-04  8.42154E+03
   1  2 10  7.63732E-04  8.42939E+03
   1  3  3  7.18740E-03  7.52140E+03
   1  3  4  1.69423E-01  7.54590E+03
   1  3  5  4.68792E-03  8.43447E+03
   1  3  6  1.77372E-03  8.47816E+03
   1  3  7  1.90649E-02  8.48131E+03
   1  3  8  4.08651E-04  8.55505E+03
   1  3  9  1.50252E-03  8.55544E+03
   1  3 10  3.51539E-04  8.56329E+03
   1  4  4  9.33923E-02  7.57040E+03
   1  4  5  8.29767E-03  8.45897E+03
   1  4  6  1.90934E-02  8.50266E+03
   1  4  7  2.13838E-02  8.50581E+03
   1  4  8  1.86474E-03  8.57955E+03
   1  4  9  1.81482E-03  8.57994E+03
   1  4 10  6.22793E-04  8.58779E+03
   1  5  5  7.23926E-04  9.34754E+03
   1  5  6  6.75507E-04  9.39123E+03
   1  5  7  1.18265E-03  9.39438E+03
   1  5  8  3.48394E-05  9.46812E+03
   1  5  9  4.64528E-05  9.46851E+03
   1  5 10  1.10321E-04  9.47636E+03
   1  6  6  1.17498E-04  9.43492E+03
   1  6  7  2.41974E-03  9.43807E+03
   1  6  8  3.98312E-05  9.51181E+03
   1  6  9  1.53346E-04  9.51220E+03
   1  6 10  5.17798E-05  9.52005E+03
   1  7  7  1.45467E-03  9.44122E+03
   1  7  8  2.05688E-04  9.51496E+03
   1  7  9  1.95088E-04  9.51535E+03
   1  7 10  9.75440E-05  9.52320E+03
   1  8  9  1.34903E-05  9.58909E+03
   1  8 10  2.24862E-06  9.59694E+03
   1  9  9  5.37849E-06  9.58948E+03
   1  9 10  5.37849E-06  9.59733E+03
   1 10 10  3.56899E-06  9.60518E+03
   2  3  0  1.74001E-05  1.33900E+02
   2  4  0  8.30426E-05  1.58400E+02
   2  6  0  7.38615E-04  1.10700E+03
   2  7  0  1.17501E-03  1.10700E+03
   2  8  0  2.89562E-06  1.18570E+03
   2  9  0  3.91643E-06  1.18610E+03
   2  3  8  4.63817E-02  1.17050E+02
   2  3  9  7.44682E-02  1.17440E+02
   2  3 10  4.45393E-03  1.25290E+02
   2  4  6  5.79122E-02  6.46600E+01
   2  4  7  1.23579E-01  6.78100E+01
   2  4  8  1.16279E-01  1.41550E+02
   2  4  9  1.65355E-01  1.41940E+02
   2  4 10  7.83086E-03  1.49790E+02
   2  5  5  1.04028E-02  9.09540E+02
   2  5  6  1.90072E-02  9.53230E+02
   2  5  7  3.68897E-02  9.56380E+02
   2  5  8  2.10136E-02  1.03012E+03
   2  5  9  3.07792E-02  1.03051E+03
   2  5 10  1.42819E-03  1.03836E+03
   2  6  6  2.57527E-04  9.96920E+02
   2  6  7  6.47584E-04  1.00007E+03
   2  6  8  3.24333E-04  1.07381E+03
   2  6  9  6.39833E-03  1.07420E+03
   2  6 10  1.16589E-03  1.08205E+03
   2  7  7  9.60655E-04  1.00322E+03
   2  7  8  6.84507E-03  1.07696E+03
   2  7  9  4.87849E-03  1.07735E+03
   2  7 10  2.36888E-03  1.08520E+03
   2  8  8  6.36840E-04  1.15070E+03
   2  8  9  3.17905E-02  1.15109E+03
   2  8 10  1.20887E-03  1.15894E+03
   2  9  9  8.89946E-03  1.15148E+03
   2  9 10  1.80261E-03  1.15933E+03
   2 10 10  4.78573E-05  1.16718E+03
   3  5  0  4.61199E-03  9.06300E+02
   3  7  0  1.80819E-05  9.57400E+02
   3  8  0  5.87348E-03  1.03465E+03
   3 10  0  1.30420E-04  1.04189E+03
   3  5  5  3.29825E-03  7.75640E+02
   3  5  6  6.14430E-02  8.19330E+02
   3  5  7  5.22423E-03  8.22480E+02
   3  5  8  2.91704E-03  8.96220E+02
   3  5  9  6.72092E-03  8.96610E+02
   3  5 10  4.37367E-04  9.04460E+02
   3  6  6  5.36229E-02  8.63020E+02
   3  6  7  1.83350E-01  8.66170E+02
   3  6  8  6.88269E-02  9.39910E+02
   3  6  9  1.30427E-01  9.40300E+02
   3  6 10  4.72271E-03  9.48150E+02
   3  7  7  5.11146E-03  8.69320E+02
   3  7  8  8.27844E-02  9.43060E+02
   3  7  9  1.21167E-02  9.43450E+02
   3  7 10  3.57096E-04  9.51300E+02
   3  8  8  6.07200E-02  1.01680E+03
   3  8  9  2.74684E-01  1.01719E+03
   3  8 10  2.34621E-04  1.02504E+03
   3  9  9  1.27114E-02  1.01758E+03
   3  9 10  4.85515E-04  1.02543E+03
   3 10 10  1.60500E-05  1.03328E+03
   4  5  0  4.34963E-03  8.84300E+02
   4  6  0  9.21506E-06  9.31700E+02
   4  7  0  8.90995E-06  9.34500E+02
   4  8  0  4.96303E-04  1.01177E+03
   4  9  0  5.25973E-03  1.01177E+03
   4 10  0  1.13281E-04  1.01739E+03
   4  5  5  3.41111E-03  7.51140E+02
   4  5  6  2.40931E-03  7.94830E+02
   4  5  7  6.38932E-02  7.97980E+02
   4  5  8  4.57611E-03  8.71720E+02
   4  5  9  5.48252E-03  8.72110E+02
   4  5 10  4.49251E-04  8.79960E+02
   4  6  6  9.06422E-04  8.38520E+02
   4  6  7  9.79730E-02  8.41670E+02
   4  6  8  4.58386E-03  9.15410E+02
   4  6  9  4.34646E-02  9.15800E+02
   4  6 10  1.62995E-04  9.23650E+02
   4  7  7  1.43650E-01  8.44820E+02
   4  7  8  1.01080E-01  9.18560E+02
   4  7  9  1.52200E-01  9.18950E+02
   4  7 10  4.88211E-03  9.26800E+02
   4  8  8  1.03408E-02  9.92300E+02
   4  8  9  2.08677E-01  9.92690E+02
   4  8 10  3.33954E-04  1.00054E+03
   4  9  9  1.40861E-01  9.93080E+02
   4  9 10  4.09504E-04  1.00093E+03
   4 10 10  1.59031E-05  1.00878E+03
   5  8  8  4.12596E-03  1.03730E+02
   5  8  9  4.48130E-02  1.04120E+02
   5  8 10  3.32219E-02  1.11970E+02
   5  9  9  1.80365E-02  1.04510E+02
   5  9 10  5.22844E-02  1.12360E+02
   5 10 10  7.24709E-04  1.20210E+02
   6  8  0  2.88079E-05  7.68900E+01
   6 10  0  3.87618E-06  8.51300E+01
   6  8  8  1.49923E-01  6.00400E+01
   6  8  9  7.74954E-01  6.04300E+01
   6  8 10  4.38691E-02  6.82800E+01
   6  9  9  2.27158E-02  6.08200E+01
   6  9 10  8.49506E-03  6.86700E+01
   6 10 10  1.08770E-05  7.65200E+01
   7  8  0  2.62310E-06  7.37400E+01
   7  9  0  2.40950E-05  7.41300E+01
   7 10  0  1.82330E-06  8.19800E+01
   7  8  8  2.36088E-02  5.68900E+01
   7  8  9  5.37047E-01  5.72800E+01
   7  8 10  9.89369E-03  6.51300E+01
   7  9  9  3.81722E-01  5.76700E+01
   7  9 10  4.76979E-02  6.55200E+01
   7 10 10  1.48540E-06  7.33700E+01
   2 30 30  2.13965E-01  3.23196E+01
   3 30  0  6.48668E-10  2.45000E+01
   3 30 30  1.91549E-02  1.58900E+01
   5 30  0  3.41563E-05  4.59412E+01
   5 30 30  8.46759E-01  3.04671E+01
 *** RELAX:  Z =  8,  no. of shells =  4,  no. of transitions =   8
   1 1s1/2 2  5.38000E+02  1.13183E-01
   2 2s1/2 2  2.84800E+01  5.77977E-01
   3 2p1/2 2  1.36200E+01  3.49407E-01
   4 2p3/2 2  1.36200E+01  3.49884E-01
   1  3  0  1.90768E-03  5.23090E+02
   1  4  0  3.80027E-03  5.23130E+02
   1  2  2  1.78644E-01  4.78820E+02
   1  2  3  1.16224E-01  4.93860E+02
   1  2  4  2.30418E-01  4.93900E+02
   1  3  3  1.10822E-02  5.08900E+02
   1  3  4  2.91115E-01  5.08940E+02
   1  4  4  1.66809E-01  5.08980E+02
 *** Electron scaled bremss x-section,  ZEQ = 2.19545E+01,  NDATA =  57
 1.00E+03 4.22485E+00 4.28280E+00 4.33988E+00 4.39536E+00 4.44943E+00
          4.55416E+00 4.65367E+00 4.74773E+00 4.83635E+00 4.92001E+00
          4.99967E+00 5.07559E+00 5.14788E+00 5.21731E+00 5.28585E+00
          5.35535E+00 5.42606E+00 5.49841E+00 5.57222E+00 5.64476E+00
          5.71218E+00 5.74453E+00 5.78094E+00 5.81612E+00 5.86116E+00
          5.87414E+00 5.88376E+00 5.88479E+00 5.88586E+00 5.88606E+00
          5.88606E+00 5.88615E+00                                     4.416E+00
 1.50E+03 5.31548E+00 5.37235E+00 5.42820E+00 5.48223E+00 5.53478E+00
          5.63666E+00 5.73327E+00 5.82410E+00 5.90886E+00 5.98745E+00
          6.06016E+00 6.12702E+00 6.18854E+00 6.24603E+00 6.30281E+00
          6.36197E+00 6.42400E+00 6.48939E+00 6.55927E+00 6.63661E+00
          6.72292E+00 6.76598E+00 6.80109E+00 6.82146E+00 6.85168E+00
          6.86314E+00 6.86829E+00 6.86845E+00 6.86928E+00 6.86936E+00
          6.86966E+00 6.86951E+00                                     5.317E+00
 2.00E+03 6.19272E+00 6.25276E+00 6.31100E+00 6.36609E+00 6.41853E+00
          6.51785E+00 6.60923E+00 6.69301E+00 6.76893E+00 6.83693E+00
          6.89724E+00 6.94988E+00 6.99558E+00 7.03615E+00 7.07635E+00
          7.12059E+00 7.16997E+00 7.22546E+00 7.28875E+00 7.36311E+00
          7.44919E+00 7.49172E+00 7.52300E+00 7.53660E+00 7.55910E+00
          7.56897E+00 7.57207E+00 7.57188E+00 7.57253E+00 7.57260E+00
          7.57295E+00 7.57276E+00                                     6.014E+00
 3.00E+03 7.54331E+00 7.62426E+00 7.70041E+00 7.76809E+00 7.82824E+00
          7.93092E+00 8.00984E+00 8.06767E+00 8.10730E+00 8.13383E+00
          8.15412E+00 8.17027E+00 8.18372E+00 8.19656E+00 8.21267E+00
          8.23556E+00 8.26546E+00 8.30100E+00 8.34120E+00 8.38847E+00
          8.44464E+00 8.47402E+00 8.49837E+00 8.51194E+00 8.52624E+00
          8.52974E+00 8.53207E+00 8.53231E+00 8.53256E+00 8.53257E+00
          8.53266E+00 8.53264E+00                                     7.062E+00
 4.00E+03 8.57760E+00 8.68358E+00 8.77956E+00 8.85797E+00 8.92082E+00
          9.01238E+00 9.06563E+00 9.09421E+00 9.10367E+00 9.10020E+00
          9.09165E+00 9.08014E+00 9.06641E+00 9.05187E+00 9.03908E+00
          9.03103E+00 9.02908E+00 9.03484E+00 9.05002E+00 9.07536E+00
          9.10781E+00 9.12348E+00 9.13756E+00 9.14672E+00 9.15418E+00
          9.15589E+00 9.15719E+00 9.15736E+00 9.15747E+00 9.15746E+00
          9.15749E+00 9.15751E+00                                     7.828E+00
 5.00E+03 9.41372E+00 9.54009E+00 9.65204E+00 9.73864E+00 9.80286E+00
          9.88269E+00 9.91096E+00 9.91060E+00 9.89019E+00 9.85822E+00
          9.82466E+00 9.78967E+00 9.74943E+00 9.70391E+00 9.66068E+00
          9.62686E+00 9.60254E+00 9.58504E+00 9.57278E+00 9.57005E+00
          9.57823E+00 9.58346E+00 9.58808E+00 9.59075E+00 9.59269E+00
          9.59308E+00 9.59343E+00 9.59346E+00 9.59349E+00 9.59350E+00
          9.59351E+00 9.59353E+00                                     8.422E+00
 6.00E+03 1.01151E+01 1.02582E+01 1.03826E+01 1.04743E+01 1.05371E+01
          1.06012E+01 1.06028E+01 1.05743E+01 1.05266E+01 1.04693E+01
          1.04133E+01 1.03571E+01 1.02933E+01 1.02210E+01 1.01511E+01
          1.00936E+01 1.00479E+01 1.00083E+01 9.97118E+00 9.94276E+00
          9.92754E+00 9.92260E+00 9.91810E+00 9.91464E+00 9.91105E+00
          9.91021E+00 9.90959E+00 9.90953E+00 9.90945E+00 9.90945E+00
          9.90944E+00 9.90946E+00                                     8.899E+00
 8.00E+03 1.12514E+01 1.14150E+01 1.15529E+01 1.16457E+01 1.16992E+01
          1.17248E+01 1.16735E+01 1.15932E+01 1.14977E+01 1.13969E+01
          1.13013E+01 1.12071E+01 1.11038E+01 1.09888E+01 1.08762E+01
          1.07783E+01 1.06936E+01 1.06142E+01 1.05346E+01 1.04626E+01
          1.04058E+01 1.03821E+01 1.03606E+01 1.03454E+01 1.03305E+01
          1.03271E+01 1.03245E+01 1.03241E+01 1.03238E+01 1.03238E+01
          1.03238E+01 1.03238E+01                                     9.620E+00
 1.00E+04 1.21520E+01 1.23163E+01 1.24512E+01 1.25348E+01 1.25739E+01
          1.25620E+01 1.24663E+01 1.23419E+01 1.22040E+01 1.20631E+01
          1.19301E+01 1.18010E+01 1.16645E+01 1.15176E+01 1.13738E+01
          1.12445E+01 1.11277E+01 1.10149E+01 1.09001E+01 1.07926E+01
          1.07015E+01 1.06614E+01 1.06247E+01 1.05984E+01 1.05726E+01
          1.05665E+01 1.05618E+01 1.05612E+01 1.05607E+01 1.05607E+01
          1.05606E+01 1.05607E+01                                     1.014E+01
 1.50E+04 1.38024E+01 1.39373E+01 1.40387E+01 1.40818E+01 1.40757E+01
          1.39677E+01 1.37731E+01 1.35531E+01 1.33241E+01 1.30968E+01
          1.28822E+01 1.26776E+01 1.24759E+01 1.22733E+01 1.20773E+01
          1.18927E+01 1.17172E+01 1.15437E+01 1.13676E+01 1.11983E+01
          1.10440E+01 1.09713E+01 1.09025E+01 1.08521E+01 1.08039E+01
          1.07923E+01 1.07831E+01 1.07819E+01 1.07810E+01 1.07809E+01
          1.07808E+01 1.07808E+01                                     1.095E+01
 2.00E+04 1.49980E+01 1.50692E+01 1.51090E+01 1.50941E+01 1.50343E+01
          1.48316E+01 1.45541E+01 1.42567E+01 1.39543E+01 1.36561E+01
          1.33724E+01 1.31040E+01 1.28502E+01 1.26079E+01 1.23771E+01
          1.21554E+01 1.19412E+01 1.17299E+01 1.15188E+01 1.13137E+01
          1.11185E+01 1.10230E+01 1.09313E+01 1.08630E+01 1.07944E+01
          1.07760E+01 1.07656E+01 1.07648E+01 1.07634E+01 1.07630E+01
          1.07633E+01 1.07630E+01                                     1.140E+01
 3.00E+04 1.68974E+01 1.67211E+01 1.65361E+01 1.63367E+01 1.61299E+01
          1.57194E+01 1.53129E+01 1.49175E+01 1.45342E+01 1.41635E+01
          1.38039E+01 1.34568E+01 1.31227E+01 1.28001E+01 1.24923E+01
          1.21990E+01 1.19211E+01 1.16595E+01 1.14141E+01 1.11793E+01
          1.09518E+01 1.08440E+01 1.07439E+01 1.06628E+01 1.05246E+01
          1.04754E+01 1.04831E+01 1.04896E+01 1.04846E+01 1.04820E+01
          1.04858E+01 1.04832E+01                                     1.184E+01
 4.00E+04 1.79331E+01 1.76836E+01 1.74253E+01 1.71529E+01 1.68748E+01
          1.63302E+01 1.57998E+01 1.52904E+01 1.48024E+01 1.43357E+01
          1.38882E+01 1.34619E+01 1.30580E+01 1.26745E+01 1.23151E+01
          1.19809E+01 1.16727E+01 1.13918E+01 1.11369E+01 1.08959E+01
          1.06563E+01 1.05383E+01 1.04225E+01 1.03206E+01 1.01434E+01
          1.00830E+01 1.01041E+01 1.01142E+01 1.01062E+01 1.01023E+01
          1.01072E+01 1.01046E+01                                     1.202E+01
 5.00E+04 1.84534E+01 1.82281E+01 1.79857E+01 1.77143E+01 1.74241E+01
          1.68245E+01 1.61967E+01 1.55551E+01 1.49184E+01 1.43109E+01
          1.37582E+01 1.32652E+01 1.28298E+01 1.24420E+01 1.20924E+01
          1.17710E+01 1.14698E+01 1.11756E+01 1.08771E+01 1.05773E+01
          1.02813E+01 1.01346E+01 9.98505E+00 9.86666E+00 9.76306E+00
          9.73848E+00 9.71727E+00 9.71471E+00 9.71277E+00 9.71246E+00
          9.71237E+00 9.71222E+00                                     1.209E+01
 6.00E+04 1.90621E+01 1.87718E+01 1.84653E+01 1.81319E+01 1.77825E+01
          1.70754E+01 1.63532E+01 1.56303E+01 1.49244E+01 1.42578E+01
          1.36550E+01 1.31201E+01 1.26486E+01 1.22287E+01 1.18484E+01
          1.14978E+01 1.11690E+01 1.08519E+01 1.05371E+01 1.02242E+01
          9.91563E+00 9.76444E+00 9.61431E+00 9.49748E+00 9.38733E+00
          9.36103E+00 9.33934E+00 9.33668E+00 9.33457E+00 9.33431E+00
          9.33410E+00 9.33406E+00                                     1.211E+01
 8.00E+04 1.98530E+01 1.95681E+01 1.92383E+01 1.88322E+01 1.83735E+01
          1.74054E+01 1.64338E+01 1.55464E+01 1.47506E+01 1.40383E+01
          1.34032E+01 1.28345E+01 1.23100E+01 1.18152E+01 1.13572E+01
          1.09438E+01 1.05678E+01 1.02179E+01 9.88184E+00 9.54729E+00
          9.21540E+00 9.06074E+00 8.91312E+00 8.79977E+00 8.68058E+00
          8.65281E+00 8.63052E+00 8.62749E+00 8.62536E+00 8.62510E+00
          8.62487E+00 8.62491E+00                                     1.208E+01
 1.00E+05 2.04730E+01 2.01090E+01 1.96984E+01 1.92089E+01 1.86670E+01
          1.75437E+01 1.64407E+01 1.54511E+01 1.45780E+01 1.38078E+01
          1.31268E+01 1.25182E+01 1.19502E+01 1.14057E+01 1.08989E+01
          1.04431E+01 1.00321E+01 9.65151E+00 9.28835E+00 8.93200E+00
          8.58688E+00 8.42939E+00 8.27988E+00 8.16476E+00 8.04143E+00
          8.01262E+00 7.98996E+00 7.98686E+00 7.98461E+00 7.98438E+00
          7.98409E+00 7.98419E+00                                     1.201E+01
 1.50E+05 2.17969E+01 2.10184E+01 2.02511E+01 1.95058E+01 1.87912E+01
          1.74707E+01 1.62729E+01 1.51845E+01 1.41943E+01 1.32965E+01
          1.24862E+01 1.17564E+01 1.10967E+01 1.04949E+01 9.93856E+00
          9.42163E+00 8.94656E+00 8.50851E+00 8.10263E+00 7.71068E+00
          7.32057E+00 7.13377E+00 6.96500E+00 6.84725E+00 6.72223E+00
          6.68942E+00 6.66629E+00 6.66391E+00 6.66137E+00 6.66099E+00
          6.66069E+00 6.66074E+00                                     1.180E+01
 2.00E+05 2.22413E+01 2.14591E+01 2.06619E+01 1.98417E+01 1.90192E+01
          1.74467E+01 1.60158E+01 1.47789E+01 1.37118E+01 1.27800E+01
          1.19545E+01 1.12081E+01 1.05117E+01 9.85026E+00 9.23142E+00
          8.66190E+00 8.14077E+00 7.65639E+00 7.20068E+00 6.78031E+00
          6.38877E+00 6.19418E+00 6.00485E+00 5.86398E+00 5.73905E+00
          5.70854E+00 5.68433E+00 5.68134E+00 5.67907E+00 5.67871E+00
          5.67853E+00 5.67834E+00                                     1.165E+01
 3.00E+05 2.32736E+01 2.20901E+01 2.09545E+01 1.99046E+01 1.89357E+01
          1.71936E+01 1.56743E+01 1.43450E+01 1.31802E+01 1.21491E+01
          1.12272E+01 1.03984E+01 9.64629E+00 8.95475E+00 8.30584E+00
          7.68923E+00 7.10889E+00 6.57199E+00 6.07565E+00 5.61064E+00
          5.17350E+00 4.96723E+00 4.76854E+00 4.62030E+00 4.48984E+00
          4.45866E+00 4.43353E+00 4.43059E+00 4.42819E+00 4.42783E+00
          4.42762E+00 4.42740E+00                                     1.153E+01
 4.00E+05 2.38907E+01 2.25218E+01 2.12251E+01 2.00541E+01 1.89921E+01
          1.70986E+01 1.54740E+01 1.40688E+01 1.28516E+01 1.17814E+01
          1.08215E+01 9.95351E+00 9.16289E+00 8.43519E+00 7.75518E+00
          7.11324E+00 6.50977E+00 5.94742E+00 5.42508E+00 4.93215E+00
          4.46776E+00 4.25013E+00 4.04654E+00 3.89825E+00 3.75966E+00
          3.72678E+00 3.70121E+00 3.69816E+00 3.69559E+00 3.69530E+00
          3.69498E+00 3.69493E+00                                     1.160E+01
 5.00E+05 2.43625E+01 2.28645E+01 2.14571E+01 2.02073E+01 1.90859E+01
          1.70896E+01 1.53934E+01 1.39367E+01 1.26809E+01 1.15799E+01
          1.05910E+01 9.69382E+00 8.87502E+00 8.12145E+00 7.41925E+00
          6.75911E+00 6.13969E+00 5.56098E+00 5.02274E+00 4.51389E+00
          4.03081E+00 3.80282E+00 3.58962E+00 3.43419E+00 3.28909E+00
          3.25493E+00 3.22848E+00 3.22532E+00 3.22261E+00 3.22232E+00
          3.22200E+00 3.22211E+00                                     1.177E+01
 6.00E+05 2.47532E+01 2.31605E+01 2.16739E+01 2.03704E+01 1.92095E+01
          1.71398E+01 1.53912E+01 1.38977E+01 1.26125E+01 1.14859E+01
          1.04731E+01 9.55297E+00 8.71238E+00 7.93885E+00 7.21921E+00
          6.54429E+00 5.91187E+00 5.32060E+00 4.76955E+00 4.24915E+00
          3.75076E+00 3.51312E+00 3.28896E+00 3.12416E+00 2.97258E+00
          2.93701E+00 2.90930E+00 2.90597E+00 2.90313E+00 2.90282E+00
          2.90250E+00 2.90268E+00                                     1.199E+01
 8.00E+05 2.53616E+01 2.36515E+01 2.20684E+01 2.07022E+01 1.94956E+01
          1.73308E+01 1.55099E+01 1.39680E+01 1.26435E+01 1.14815E+01
          1.04350E+01 9.48304E+00 8.61275E+00 7.81158E+00 7.06588E+00
          6.36627E+00 5.71041E+00 5.09672E+00 4.52251E+00 3.97893E+00
          3.45179E+00 3.19615E+00 2.95145E+00 2.76852E+00 2.60145E+00
          2.56194E+00 2.53080E+00 2.52710E+00 2.52393E+00 2.52354E+00
          2.52322E+00 2.52321E+00                                     1.253E+01
 1.00E+06 2.58322E+01 2.40501E+01 2.24105E+01 2.10126E+01 1.97864E+01
          1.75758E+01 1.57191E+01 1.41485E+01 1.27980E+01 1.16110E+01
          1.05414E+01 9.56868E+00 8.67928E+00 7.85955E+00 7.09465E+00
          6.37458E+00 5.69729E+00 5.06183E+00 4.46432E+00 3.89349E+00
          3.33660E+00 3.06312E+00 2.79863E+00 2.59790E+00 2.41194E+00
          2.36724E+00 2.33183E+00 2.32763E+00 2.32408E+00 2.32363E+00
          2.32325E+00 2.32295E+00                                     1.312E+01
 1.50E+06 2.66657E+01 2.47896E+01 2.30816E+01 2.16581E+01 2.04253E+01
          1.81873E+01 1.63161E+01 1.47161E+01 1.33302E+01 1.21062E+01
          1.10032E+01 1.00003E+01 9.08201E+00 8.23237E+00 7.43362E+00
          6.67413E+00 5.95271E+00 5.26932E+00 4.61831E+00 3.98072E+00
          3.34448E+00 3.02434E+00 2.70427E+00 2.45122E+00 2.21041E+00
          2.15105E+00 2.10332E+00 2.09762E+00 2.09301E+00 2.09239E+00
          2.09191E+00 2.09163E+00                                     1.450E+01
 2.00E+06 2.71997E+01 2.52928E+01 2.35683E+01 2.21508E+01 2.09328E+01
          1.87089E+01 1.68511E+01 1.52505E+01 1.38573E+01 1.26224E+01
          1.15067E+01 1.04897E+01 9.55559E+00 8.68747E+00 7.86594E+00
          7.07838E+00 6.32400E+00 5.60346E+00 4.90929E+00 4.21548E+00
          3.50069E+00 3.13264E+00 2.75034E+00 2.43656E+00 2.13607E+00
          2.06214E+00 2.00270E+00 1.99543E+00 1.98925E+00 1.98849E+00
          1.98794E+00 1.98857E+00                                     1.569E+01
 3.00E+06 2.78604E+01 2.59163E+01 2.41798E+01 2.27918E+01 2.16251E+01
          1.94915E+01 1.76958E+01 1.61349E+01 1.47627E+01 1.35328E+01
          1.24079E+01 1.13706E+01 1.04096E+01 9.51267E+00 8.66577E+00
          7.85676E+00 7.07703E+00 6.31419E+00 5.55071E+00 4.75810E+00
          3.90390E+00 3.44330E+00 2.94875E+00 2.51982E+00 2.08145E+00
          1.97865E+00 1.90568E+00 1.89650E+00 1.88488E+00 1.88303E+00
          1.88428E+00 1.88605E+00                                     1.755E+01
 4.00E+06 2.82071E+01 2.62626E+01 2.45435E+01 2.32016E+01 2.20939E+01
          2.00561E+01 1.83182E+01 1.67958E+01 1.54477E+01 1.42315E+01
          1.31126E+01 1.20754E+01 1.11097E+01 1.02044E+01 9.34653E+00
          8.52402E+00 7.72701E+00 6.94066E+00 6.14134E+00 5.28608E+00
          4.32093E+00 3.77603E+00 3.17136E+00 2.63573E+00 2.07462E+00
          1.94101E+00 1.85393E+00 1.84326E+00 1.82684E+00 1.82406E+00
          1.82730E+00 1.82876E+00                                     1.894E+01
 5.00E+06 2.81695E+01 2.63368E+01 2.47308E+01 2.35013E+01 2.24926E+01
          2.05782E+01 1.88860E+01 1.73629E+01 1.59899E+01 1.47472E+01
          1.36194E+01 1.25907E+01 1.16451E+01 1.07640E+01 9.92442E+00
          9.10757E+00 8.30314E+00 7.49616E+00 6.66014E+00 5.74377E+00
          4.68309E+00 4.07509E+00 3.39501E+00 2.78728E+00 2.09689E+00
          1.91298E+00 1.81795E+00 1.80976E+00 1.78811E+00 1.78345E+00
          1.79000E+00 1.78892E+00                                     2.003E+01
 6.00E+06 2.83067E+01 2.64715E+01 2.48793E+01 2.36897E+01 2.27298E+01
          2.08825E+01 1.92400E+01 1.77548E+01 1.64106E+01 1.51893E+01
          1.40769E+01 1.30590E+01 1.21206E+01 1.12442E+01 1.04077E+01
          9.59218E+00 8.78628E+00 7.97268E+00 7.12018E+00 6.16756E+00
          5.03539E+00 4.37059E+00 3.61177E+00 2.92271E+00 2.12521E+00
          1.90749E+00 1.79407E+00 1.78446E+00 1.75987E+00 1.75456E+00
          1.76216E+00 1.75970E+00                                     2.090E+01
 8.00E+06 2.84156E+01 2.65853E+01 2.50250E+01 2.39093E+01 2.30341E+01
          2.12978E+01 1.97431E+01 1.83264E+01 1.70359E+01 1.58562E+01
          1.47759E+01 1.37827E+01 1.28637E+01 1.20036E+01 1.11822E+01
          1.03812E+01 9.58702E+00 8.77751E+00 7.91177E+00 6.90724E+00
          5.65467E+00 4.89207E+00 3.99975E+00 3.17550E+00 2.22027E+00
          1.94258E+00 1.74579E+00 1.73287E+00 1.72981E+00 1.72586E+00
          1.70983E+00 1.71677E+00                                     2.224E+01
 1.00E+07 2.84593E+01 2.66338E+01 2.50969E+01 2.40341E+01 2.32194E+01
          2.15636E+01 2.00754E+01 1.87139E+01 1.74696E+01 1.63287E+01
          1.52811E+01 1.43161E+01 1.34218E+01 1.25839E+01 1.17831E+01
          1.10014E+01 1.02237E+01 9.42554E+00 8.55990E+00 7.53036E+00
          6.20313E+00 5.37099E+00 4.37294E+00 3.42612E+00 2.30879E+00
          1.97591E+00 1.72823E+00 1.70875E+00 1.70267E+00 1.69849E+00
          1.68035E+00 1.68733E+00                                     2.322E+01
 1.50E+07 2.86278E+01 2.67901E+01 2.52673E+01 2.42611E+01 2.35179E+01
          2.19648E+01 2.05675E+01 1.92914E+01 1.81279E+01 1.70647E+01
          1.60922E+01 1.51995E+01 1.43746E+01 1.36014E+01 1.28578E+01
          1.21233E+01 1.13838E+01 1.06157E+01 9.77380E+00 8.76167E+00
          7.40023E+00 6.47473E+00 5.25846E+00 4.02088E+00 2.51448E+00
          2.06982E+00 1.73524E+00 1.69356E+00 1.65486E+00 1.65064E+00
          1.65077E+00 1.64606E+00                                     2.493E+01
 2.00E+07 2.85681E+01 2.67492E+01 2.52577E+01 2.43021E+01 2.36157E+01
          2.21526E+01 2.08316E+01 1.96243E+01 1.85233E+01 1.75178E+01
          1.65994E+01 1.57586E+01 1.49840E+01 1.42607E+01 1.35669E+01
          1.28824E+01 1.21921E+01 1.14705E+01 1.06665E+01 9.66919E+00
          8.27282E+00 7.29653E+00 5.98508E+00 4.59433E+00 2.76478E+00
          2.19807E+00 1.73755E+00 1.67898E+00 1.63377E+00 1.62900E+00
          1.62785E+00 1.62252E+00                                     2.602E+01
 3.00E+07 2.84137E+01 2.66268E+01 2.51819E+01 2.42963E+01 2.36869E+01
          2.23463E+01 2.11302E+01 2.00168E+01 1.90008E+01 1.80738E+01
          1.72293E+01 1.64598E+01 1.57563E+01 1.51062E+01 1.44905E+01
          1.38904E+01 1.32907E+01 1.26626E+01 1.19457E+01 1.10017E+01
          9.58279E+00 8.54933E+00 7.12554E+00 5.54340E+00 3.25901E+00
          2.49814E+00 1.77925E+00 1.67759E+00 1.60851E+00 1.60267E+00
          1.59341E+00 1.59815E+00                                     2.744E+01
 4.00E+07 2.83590E+01 2.65791E+01 2.51499E+01 2.42930E+01 2.37168E+01
          2.24298E+01 2.12637E+01 2.02002E+01 1.92338E+01 1.83572E+01
          1.75644E+01 1.68485E+01 1.62008E+01 1.56088E+01 1.50532E+01
          1.45149E+01 1.39802E+01 1.34222E+01 1.27822E+01 1.19210E+01
          1.05732E+01 9.54836E+00 8.07541E+00 6.35307E+00 3.68828E+00
          2.75686E+00 1.83821E+00 1.69788E+00 1.59250E+00 1.58461E+00
          1.58246E+00 1.58469E+00                                     2.833E+01
 5.00E+07 2.83365E+01 2.65675E+01 2.51519E+01 2.43134E+01 2.37566E+01
          2.25014E+01 2.13640E+01 2.03289E+01 1.93907E+01 1.85432E+01
          1.77810E+01 1.70979E+01 1.64863E+01 1.59348E+01 1.54254E+01
          1.49402E+01 1.44661E+01 1.39760E+01 1.34079E+01 1.26100E+01
          1.13118E+01 1.03194E+01 8.89342E+00 7.14214E+00 4.11892E+00
          2.98794E+00 1.86856E+00 1.70757E+00 1.59953E+00 1.59041E+00
          1.58112E+00 1.57673E+00                                     2.897E+01
 6.00E+07 2.82556E+01 2.65122E+01 2.51217E+01 2.43067E+01 2.37717E+01
          2.25540E+01 2.14480E+01 2.04386E+01 1.95220E+01 1.86931E+01
          1.79481E+01 1.72839E+01 1.66968E+01 1.61793E+01 1.57157E+01
          1.52866E+01 1.48677E+01 1.44192E+01 1.38776E+01 1.31220E+01
          1.19114E+01 1.09702E+01 9.56380E+00 7.75480E+00 4.51230E+00
          3.23031E+00 1.92457E+00 1.73558E+00 1.59858E+00 1.58700E+00
          1.57263E+00 1.57161E+00                                     2.946E+01
 8.00E+07 2.82102E+01 2.64933E+01 2.51252E+01 2.43260E+01 2.38030E+01
          2.26094E+01 2.15284E+01 2.05476E+01 1.96632E+01 1.88702E+01
          1.81647E+01 1.75422E+01 1.69969E+01 1.65199E+01 1.60959E+01
          1.57106E+01 1.53541E+01 1.50032E+01 1.45978E+01 1.39786E+01
          1.28606E+01 1.19539E+01 1.05930E+01 8.78477E+00 5.21751E+00
          3.69567E+00 2.03844E+00 1.78602E+00 1.60048E+00 1.58379E+00
          1.56775E+00 1.56434E+00                                     3.016E+01
 1.00E+08 2.81201E+01 2.64466E+01 2.51149E+01 2.43413E+01 2.38368E+01
          2.26744E+01 2.16145E+01 2.06492E+01 1.97766E+01 1.89951E+01
          1.83040E+01 1.77002E+01 1.71793E+01 1.67343E+01 1.63525E+01
          1.60202E+01 1.57228E+01 1.54256E+01 1.50666E+01 1.45237E+01
          1.35438E+01 1.27145E+01 1.13990E+01 9.59172E+00 5.85628E+00
          4.11926E+00 2.15096E+00 1.84497E+00 1.60645E+00 1.58313E+00
          1.56360E+00 1.56003E+00                                     3.065E+01
 1.50E+08 2.80631E+01 2.64395E+01 2.51465E+01 2.43924E+01 2.38982E+01
          2.27613E+01 2.17256E+01 2.07844E+01 1.99365E+01 1.91807E+01
          1.85165E+01 1.79420E+01 1.74546E+01 1.70492E+01 1.67168E+01
          1.64469E+01 1.62287E+01 1.60320E+01 1.58031E+01 1.54350E+01
          1.46911E+01 1.39999E+01 1.28164E+01 1.10807E+01 7.13953E+00
          5.06367E+00 2.43004E+00 1.99571E+00 1.62707E+00 1.58871E+00
          1.55767E+00 1.55433E+00                                     3.143E+01
