 PENELOPE (v. 2012)  Material data file ...............
 Material: SRM 1155, Cr-Ni-Mo (AISI 316)                                 
 Mass density = 7.97000000E+00 g/cm**3
 Number of elements in the molecule = 13
   atomic number =  6,  atoms/molecule = 3.31829630E-03
   atomic number = 25,  atoms/molecule = 2.57069917E-02
   atomic number = 15,  atoms/molecule = 5.59460204E-04
   atomic number = 16,  atoms/molecule = 4.86367128E-04
   atomic number = 14,  atoms/molecule = 1.54863947E-02
   atomic number = 29,  atoms/molecule = 2.30427859E-03
   atomic number = 28,  atoms/molecule = 1.79812416E-01
   atomic number = 24,  atoms/molecule = 3.07441814E-01
   atomic number = 23,  atoms/molecule = 7.99389362E-04
   atomic number = 42,  atoms/molecule = 2.14938266E-02
   atomic number = 27,  atoms/molecule = 1.48490723E-03
   atomic number = 82,  atoms/molecule = 4.18164102E-06
   atomic number = 26,  atoms/molecule = 1.00000000E+00
 Mean excitation energy = 2.84735384E+02 eV
 Number of oscillators = 67 (E/P inelastic model)
   1  3.20299987E+00  0.00000000E+00  1.56412739E+01   0  30
   2  8.87234625E+00  9.08916537E+00  2.59538596E+01   0  30
   3  4.18164102E-05  2.58000000E+01  6.65241848E+01  82  30
   4  1.24086492E+01  6.83616864E+01  1.71111909E+02   0  30
   5  3.34531281E-05  1.44000000E+02  3.71563025E+02  82  16
   6  2.50898461E-05  1.48000000E+02  3.81884220E+02  82  15
   7  8.36328203E-06  1.53000000E+02  3.94785712E+02  82  30
   8  3.09727894E-02  1.54000000E+02  3.97367995E+02  14   2
   9  1.94546851E-03  1.68000000E+02  4.33490308E+02  16   4
  10  9.72734256E-04  1.70000000E+02  4.38650848E+02  16   3
  11  1.11892041E-03  1.91000000E+02  4.92837123E+02  15   2
  12  9.72734256E-04  2.32000000E+02  5.98629356E+02  16   2
  13  1.28962960E-01  2.34000000E+02  6.03795350E+02  42   9
  14  8.59753064E-02  2.37000000E+02  6.11534388E+02  42   8
  15  6.63659260E-03  2.88000000E+02  7.43126273E+02   6   1
  16  8.59753064E-02  3.99000000E+02  1.02954134E+03  42   7
  17  4.29876532E-02  4.16000000E+02  1.07340531E+03  42   6
  18  2.50898461E-05  4.19000000E+02  1.08114519E+03  82  14
  19  1.67265641E-05  4.41000000E+02  1.13791176E+03  82  13
  20  4.29876532E-02  5.11000000E+02  1.31853350E+03  42   5
  21  3.19755745E-03  5.18000000E+02  1.33659482E+03  23   4
  22  1.59877872E-03  5.25000000E+02  1.35465688E+03  23   3
  23  1.22976725E+00  5.80000000E+02  1.49659421E+03  24   4
  24  6.14883627E-01  5.89000000E+02  1.51980628E+03  24   3
  25  1.59877872E-03  6.33000000E+02  1.63332915E+03  23   2
  26  1.02827967E-01  6.45000000E+02  1.66429428E+03  25   4
  27  1.67265641E-05  6.51000000E+02  1.67977450E+03  82  12
  28  5.14139834E-02  6.56000000E+02  1.69267677E+03  25   3
  29  6.14883627E-01  7.02000000E+02  1.81137838E+03  24   2
  30  4.00000000E+00  7.13000000E+02  1.83980838E+03  26   4
  31  2.00000000E+00  7.26000000E+02  1.87332409E+03  26   3
  32  5.14139834E-02  7.55000000E+02  1.94812624E+03  25   2
  33  8.36328203E-06  7.69000000E+02  1.98424975E+03  82  11
  34  5.93962892E-03  7.85000000E+02  2.02553461E+03  27   4
  35  2.96981446E-03  8.00000000E+02  2.06423905E+03  27   3
  36  2.00000000E+00  8.51000000E+02  2.19585744E+03  26   2
  37  7.19249665E-01  8.60000000E+02  2.21906520E+03  28   4
  38  3.59624832E-01  8.77000000E+02  2.26292607E+03  28   3
  39  8.36328203E-06  8.99000000E+02  2.31968860E+03  82  10
  40  2.96981446E-03  9.31000000E+02  2.40225819E+03  27   2
  41  9.21711435E-03  9.38000000E+02  2.42032034E+03  29   4
  42  4.60855717E-03  9.58000000E+02  2.47192627E+03  29   3
  43  3.59624832E-01  1.01500000E+03  2.61900675E+03  28   2
  44  4.60855717E-03  1.10300000E+03  2.84606959E+03  29   2
  45  3.09727894E-02  1.84400000E+03  4.75807110E+03  14   1
  46  1.11892041E-03  2.14800000E+03  5.54248177E+03  15   1
  47  9.72734256E-04  2.47600000E+03  6.38881976E+03  16   1
  48  2.50898461E-05  2.49000000E+03  6.42494394E+03  82   9
  49  8.59753064E-02  2.52700000E+03  6.52041533E+03  42   4
  50  1.67265641E-05  2.59200000E+03  6.68813441E+03  82   8
  51  4.29876532E-02  2.63200000E+03  6.79134653E+03  42   3
  52  4.29876532E-02  2.87200000E+03  7.41061822E+03  42   2
  53  1.67265641E-05  3.07200000E+03  7.92667782E+03  82   7
  54  8.36328203E-06  3.56000000E+03  9.18586362E+03  82   6
  55  8.36328203E-06  3.85700000E+03  9.95221236E+03  82   5
  56  1.59877872E-03  5.47000000E+03  1.41142343E+04  23   1
  57  6.14883627E-01  5.99500000E+03  1.54688921E+04  24   1
  58  5.14139834E-02  6.54400000E+03  1.68854752E+04  25   1
  59  2.00000000E+00  7.11700000E+03  1.83639891E+04  26   1
  60  2.96981446E-03  7.71500000E+03  1.99070050E+04  27   1
  61  3.59624832E-01  8.33800000E+03  2.15145316E+04  28   1
  62  4.60855717E-03  8.98600000E+03  2.31865648E+04  29   1
  63  1.67265641E-05  1.30410000E+04  3.36496763E+04  82   4
  64  8.36328203E-06  1.52060000E+04  3.92360231E+04  82   3
  65  8.36328203E-06  1.58670000E+04  4.09416006E+04  82   2
  66  4.29876532E-02  2.00060000E+04  5.16214572E+04  42   1
  67  8.36328203E-06  8.80110000E+04  2.27094675E+05  82   1
 Number of shells = 67 (Compton IA model)
   1  3.20299987E+00  0.00000000E+00  8.50029923E-01   0  30
   2  8.87234625E+00  9.08916537E+00  2.18355441E-01   0  30
   3  4.18164102E-05  2.58000000E+01  2.24401600E-01  82  30
   4  1.24086492E+01  6.83616864E+01  2.58906185E-01   0  30
   5  3.34531281E-05  1.44000000E+02  6.14193000E-02  82  16
   6  2.50898461E-05  1.48000000E+02  6.06300000E-02  82  15
   7  8.36328203E-06  1.53000000E+02  3.24980000E-01  82  30
   8  3.09727894E-02  1.54000000E+02  2.74105000E-01  14   2
   9  1.94546851E-03  1.68000000E+02  1.22328000E-01  16   4
  10  9.72734256E-04  1.70000000E+02  1.21780000E-01  16   3
  11  1.11892041E-03  1.91000000E+02  2.49749000E-01  15   2
  12  9.72734256E-04  2.32000000E+02  2.29436000E-01  16   2
  13  1.28962960E-01  2.34000000E+02  7.53835000E-02  42   9
  14  8.59753064E-02  2.37000000E+02  7.48120000E-02  42   8
  15  6.63659260E-03  2.88000000E+02  1.53080000E-01   6   1
  16  8.59753064E-02  3.99000000E+02  1.07643000E-01  42   7
  17  4.29876532E-02  4.16000000E+02  1.05307000E-01  42   6
  18  2.50898461E-05  4.19000000E+02  7.35632000E-02  82  14
  19  1.67265641E-05  4.41000000E+02  7.17904000E-02  82  13
  20  4.29876532E-02  5.11000000E+02  1.75845000E-01  42   5
  21  3.19755745E-03  5.18000000E+02  7.54333000E-02  23   4
  22  1.59877872E-03  5.25000000E+02  7.47748000E-02  23   3
  23  1.22976725E+00  5.80000000E+02  7.15592000E-02  24   4
  24  6.14883627E-01  5.89000000E+02  7.08800000E-02  24   3
  25  1.59877872E-03  6.33000000E+02  1.45750000E-01  23   2
  26  1.02827967E-01  6.45000000E+02  6.80680000E-02  25   4
  27  1.67265641E-05  6.51000000E+02  9.56802000E-02  82  12
  28  5.14139834E-02  6.56000000E+02  6.73678000E-02  25   3
  29  6.14883627E-01  7.02000000E+02  1.38504000E-01  24   2
  30  4.00000000E+00  7.13000000E+02  6.49062000E-02  26   4
  31  2.00000000E+00  7.26000000E+02  6.41844000E-02  26   3
  32  5.14139834E-02  7.55000000E+02  1.31920000E-01  25   2
  33  8.36328203E-06  7.69000000E+02  8.84541000E-02  82  11
  34  5.93962892E-03  7.85000000E+02  6.20279000E-02  27   4
  35  2.96981446E-03  8.00000000E+02  6.12840000E-02  27   3
  36  2.00000000E+00  8.51000000E+02  1.25935000E-01  26   2
  37  7.19249665E-01  8.60000000E+02  5.93958000E-02  28   4
  38  3.59624832E-01  8.77000000E+02  5.86296000E-02  28   3
  39  8.36328203E-06  8.99000000E+02  1.40588000E-01  82  10
  40  2.96981446E-03  9.31000000E+02  1.20462000E-01  27   2
  41  9.21711435E-03  9.38000000E+02  5.69789000E-02  29   4
  42  4.60855717E-03  9.58000000E+02  5.61903000E-02  29   3
  43  3.59624832E-01  1.01500000E+03  1.15436000E-01  28   2
  44  4.60855717E-03  1.10300000E+03  1.10809000E-01  29   2
  45  3.09727894E-02  1.84400000E+03  6.32596000E-02  14   1
  46  1.11892041E-03  2.14800000E+03  5.88756000E-02  15   1
  47  9.72734256E-04  2.47600000E+03  5.50495000E-02  16   1
  48  2.50898461E-05  2.49000000E+03  2.90548000E-02  82   9
  49  8.59753064E-02  2.52700000E+03  3.71129000E-02  42   4
  50  1.67265641E-05  2.59200000E+03  2.82884000E-02  82   8
  51  4.29876532E-02  2.63200000E+03  3.60285000E-02  42   3
  52  4.29876532E-02  2.87200000E+03  7.19826000E-02  42   2
  53  1.67265641E-05  3.07200000E+03  4.38402000E-02  82   7
  54  8.36328203E-06  3.56000000E+03  4.03530000E-02  82   6
  55  8.36328203E-06  3.85700000E+03  6.89465000E-02  82   5
  56  1.59877872E-03  5.47000000E+03  3.76812000E-02  23   1
  57  6.14883627E-01  5.99500000E+03  3.60328000E-02  24   1
  58  5.14139834E-02  6.54400000E+03  3.45189000E-02  25   1
  59  2.00000000E+00  7.11700000E+03  3.31215000E-02  26   1
  60  2.96981446E-03  7.71500000E+03  3.18282000E-02  27   1
  61  3.59624832E-01  8.33800000E+03  3.06276000E-02  28   1
  62  4.60855717E-03  8.98600000E+03  2.95096000E-02  29   1
  63  1.67265641E-05  1.30410000E+04  1.73769000E-02  82   4
  64  8.36328203E-06  1.52060000E+04  1.52700000E-02  82   3
  65  8.36328203E-06  1.58670000E+04  3.14282000E-02  82   2
  66  4.29876532E-02  2.00060000E+04  1.98120000E-02  42   1
  67  8.36328203E-06  8.80110000E+04  8.82204000E-03  82   1
 *** RELAX:  Z =  6,  no. of shells =  3,  no. of transitions =   8
   1 1s1/2 2  2.88000E+02  1.53080E-01
   2 2s1/2 2  1.65900E+01  8.03154E-01
   3 2p1/2 2  1.12600E+01  4.88373E-01
   1  3  0  5.61488E-04  2.82020E+02
   1  4  0  1.12060E-03  2.82030E+02
   1  2  2  4.13609E-01  2.55890E+02
   1  2  3  1.36190E-01  2.64460E+02
   1  2  4  2.71099E-01  2.64470E+02
   1  3  3  4.20748E-03  2.73030E+02
   1  3  4  1.10012E-01  2.73040E+02
   1  4  4  6.32008E-02  2.73050E+02
 *** RELAX:  Z = 25,  no. of shells = 10,  no. of transitions = 147
   1 1s1/2 2  6.54400E+03  3.45189E-02
   2 2s1/2 2  7.55000E+02  1.31920E-01
   3 2p1/2 2  6.56000E+02  6.73678E-02
   4 2p3/2 4  6.45000E+02  6.80680E-02
   5 3s1/2 2  8.90000E+01  3.69361E-01
   6 3p1/2 2  5.50000E+01  2.32855E-01
   7 3p3/2 4  5.30000E+01  2.35040E-01
   8 3d3/2 4  9.00000E+00  2.15446E-01
   9 3d5/2 1  9.00000E+00  2.16401E-01
  10 4s1/2 2  7.43400E+00  1.57584E+00
   1  3  0  9.17726E-02  5.88769E+03
   1  4  0  1.79949E-01  5.89880E+03
   1  6  0  1.09360E-02  6.49059E+03
   1  7  0  2.15229E-02  6.49059E+03
   1  8  0  3.85518E-06  6.53536E+03
   1  9  0  5.64148E-06  6.53536E+03
   1  2  2  4.67138E-02  4.97796E+03
   1  2  3  5.17916E-02  5.08146E+03
   1  2  4  9.52207E-02  5.09221E+03
   1  2  5  1.24821E-02  5.65185E+03
   1  2  6  6.59506E-03  5.68234E+03
   1  2  7  1.20614E-02  5.68365E+03
   1  2  8  1.52466E-04  5.73258E+03
   1  2  9  2.11912E-04  5.73271E+03
   1  2 10  1.14999E-03  5.73718E+03
   1  3  3  9.33686E-03  5.18496E+03
   1  3  4  2.24948E-01  5.19571E+03
   1  3  5  5.91526E-03  5.75535E+03
   1  3  6  2.24573E-03  5.78584E+03
   1  3  7  2.47828E-02  5.78715E+03
   1  3  8  2.11909E-04  5.83608E+03
   1  3  9  7.93352E-04  5.83621E+03
   1  3 10  5.34934E-04  5.84068E+03
   1  4  4  1.25736E-01  5.20646E+03
   1  4  5  1.09189E-02  5.76610E+03
   1  4  6  2.47718E-02  5.79659E+03
   1  4  7  2.81289E-02  5.79790E+03
   1  4  8  9.84510E-04  5.84683E+03
   1  4  9  9.71635E-04  5.84696E+03
   1  4 10  9.87080E-04  5.85143E+03
   1  5  5  8.24386E-04  6.32574E+03
   1  5  6  7.57183E-04  6.35623E+03
   1  5  7  1.38769E-03  6.35754E+03
   1  5  8  1.55054E-05  6.40647E+03
   1  5  9  2.32585E-05  6.40660E+03
   1  5 10  1.52465E-04  6.41107E+03
   1  6  6  1.30400E-04  6.38672E+03
   1  6  7  2.77500E-03  6.38803E+03
   1  6  8  1.82564E-05  6.43696E+03
   1  6  9  7.30232E-05  6.43709E+03
   1  6 10  6.78099E-05  6.44156E+03
   1  7  7  1.61665E-03  6.38934E+03
   1  7  8  9.29085E-05  6.43827E+03
   1  7  9  9.02568E-05  6.43840E+03
   1  7 10  1.30078E-04  6.44287E+03
   1  8  9  2.58429E-06  6.48733E+03
   1  8 10  2.58429E-06  6.49180E+03
   1  9 10  2.58419E-06  6.49193E+03
   2  3  0  3.44712E-05  1.03500E+02
   2  4  0  1.28601E-04  1.14250E+02
   2  6  0  4.87964E-04  7.21200E+02
   2  7  0  7.08545E-04  7.21200E+02
   2  8  0  1.26141E-06  7.68340E+02
   2  9  0  1.76201E-06  7.69360E+02
   2  3  8  3.86253E-02  9.16500E+01
   2  3  9  6.34333E-02  9.17800E+01
   2  3 10  6.97311E-03  9.62500E+01
   2  4  6  6.79573E-02  5.21600E+01
   2  4  7  1.55173E-01  5.34700E+01
   2  4  8  9.02735E-02  1.02400E+02
   2  4  9  1.27740E-01  1.02530E+02
   2  4 10  1.29083E-02  1.07000E+02
   2  5  5  1.51766E-02  5.81310E+02
   2  5  6  2.72907E-02  6.11800E+02
   2  5  7  5.35293E-02  6.13110E+02
   2  5  8  1.37094E-02  6.62040E+02
   2  5  9  2.02584E-02  6.62170E+02
   2  5 10  2.49655E-03  6.66640E+02
   2  6  6  4.48180E-04  6.42290E+02
   2  6  7  6.36606E-04  6.43600E+02
   2  6  8  1.95994E-04  6.92530E+02
   2  6  9  3.62961E-03  6.92660E+02
   2  6 10  1.91586E-03  6.97130E+02
   2  7  7  1.25022E-03  6.44910E+02
   2  7  8  3.74630E-03  6.93840E+02
   2  7  9  2.72895E-03  6.93970E+02
   2  7 10  3.60061E-03  6.98440E+02
   2  8  8  1.68704E-04  7.42770E+02
   2  8  9  8.95871E-03  7.42900E+02
   2  8 10  9.67657E-04  7.47370E+02
   2  9  9  2.40642E-03  7.43030E+02
   2  9 10  1.39661E-03  7.47500E+02
   3  5  0  3.57611E-03  5.67420E+02
   3  7  0  7.00762E-06  6.06500E+02
   3  8  0  8.77713E-04  6.48800E+02
   3 10  0  6.97162E-05  6.55720E+02
   3  5  5  6.61693E-03  4.77810E+02
   3  5  6  1.20709E-01  5.08300E+02
   3  5  7  9.64520E-03  5.09610E+02
   3  5  8  3.57326E-03  5.58540E+02
   3  5  9  5.88520E-03  5.58670E+02
   3  5 10  1.05091E-03  5.63140E+02
   3  6  6  1.02396E-01  5.38790E+02
   3  6  7  3.56396E-01  5.40100E+02
   3  6  8  6.06602E-02  5.89030E+02
   3  6  9  1.18320E-01  5.89160E+02
   3  6 10  1.11894E-02  5.93630E+02
   3  7  7  9.88714E-03  5.41410E+02
   3  7  8  6.98718E-02  5.90340E+02
   3  7  9  1.07431E-02  5.90470E+02
   3  7 10  7.86291E-04  5.94940E+02
   3  8  8  1.83293E-02  6.39270E+02
   3  8  9  8.38539E-02  6.39400E+02
   3  8 10  2.77108E-04  6.43870E+02
   3  9  9  4.76450E-03  6.39530E+02
   3  9 10  5.13814E-04  6.44000E+02
   4  5  0  3.35628E-03  5.56220E+02
   4  6  0  3.41908E-06  5.87300E+02
   4  7  0  3.33848E-06  5.94600E+02
   4  8  0  7.06575E-05  6.37440E+02
   4  9  0  7.98014E-04  6.37440E+02
   4 10  0  6.55745E-05  6.44970E+02
   4  5  5  6.20886E-03  4.67060E+02
   4  5  6  4.22301E-03  4.97550E+02
   4  5  7  1.16349E-01  4.98860E+02
   4  5  8  3.79266E-03  5.47790E+02
   4  5  9  5.40607E-03  5.47920E+02
   4  5 10  9.89484E-04  5.52390E+02
   4  6  6  1.62236E-03  5.28040E+02
   4  6  7  1.74618E-01  5.29350E+02
   4  6  8  3.48065E-03  5.78280E+02
   4  6  9  3.40844E-02  5.78410E+02
   4  6 10  3.43045E-04  5.82880E+02
   4  7  7  2.59646E-01  5.30660E+02
   4  7  8  8.35044E-02  5.79590E+02
   4  7  9  1.24363E-01  5.79720E+02
   4  7 10  1.07536E-02  5.84190E+02
   4  8  8  4.87347E-03  6.28520E+02
   4  8  9  9.92986E-02  6.28650E+02
   4  8 10  4.77198E-04  6.33120E+02
   4  9  9  6.10517E-02  6.28780E+02
   4  9 10  6.17804E-04  6.33250E+02
   5  8  8  6.32082E-04  6.88800E+01
   5  8  9  1.85482E-02  6.90100E+01
   5  8 10  2.34369E-02  7.34800E+01
   5  9  9  4.80240E-03  6.91400E+01
   5  9 10  3.48438E-02  7.36100E+01
   6  8  0  1.89409E-06  5.02400E+01
   6 10  0  1.66869E-07  5.48400E+01
   7 10  0  5.15039E-08  5.35300E+01
   2 30 30  2.71042E-01  3.14926E+01
   3 30  0  1.37650E-10  1.07500E+01
   5 30  0  1.09171E-05  3.14025E+01
   5 30 30  9.17725E-01  2.06029E+01
   6 30 30  9.99998E-01  3.89837E+01
   7 30  0  1.70041E-06  4.90471E+01
   7 30 30  9.99999E-01  3.77629E+01
 *** RELAX:  Z = 15,  no. of shells =  7,  no. of transitions =  52
   1 1s1/2 2  2.14800E+03  5.88756E-02
   2 2s1/2 2  1.91000E+02  2.49749E-01
   3 2p1/2 2  1.35000E+02  1.33772E-01
   4 2p3/2 4  1.34000E+02  1.34312E-01
   5 3s1/2 2  1.61500E+01  8.94833E-01
   6 3p1/2 2  1.04900E+01  6.29989E-01
   7 3p3/2 1  1.04900E+01  6.32143E-01
   1  3  0  2.01220E-02  2.01270E+03
   1  4  0  3.98749E-02  2.01368E+03
   1  6  0  6.21469E-04  2.13910E+03
   1  7  0  1.23210E-03  2.13910E+03
   1  2  2  7.12845E-02  1.75610E+03
   1  2  3  7.70090E-02  1.80411E+03
   1  2  4  1.49534E-01  1.80507E+03
   1  2  5  1.42971E-02  1.92604E+03
   1  2  6  3.09277E-03  1.93487E+03
   1  2  7  6.00170E-03  1.93492E+03
   1  3  3  1.35789E-02  1.85212E+03
   1  3  4  3.44468E-01  1.85308E+03
   1  3  5  6.87552E-03  1.97405E+03
   1  3  6  1.05204E-03  1.98288E+03
   1  3  7  1.25152E-02  1.98293E+03
   1  4  4  1.96055E-01  1.85404E+03
   1  4  5  1.33713E-02  1.97501E+03
   1  4  6  1.25043E-02  1.98384E+03
   1  4  7  1.43892E-02  1.98389E+03
   1  5  5  7.12833E-04  2.09598E+03
   1  5  6  2.75938E-04  2.10481E+03
   1  5  7  5.34626E-04  2.10486E+03
   1  6  6  1.72459E-05  2.11364E+03
   1  6  7  3.67923E-04  2.11369E+03
   1  7  7  2.12700E-04  2.11374E+03
   2  6  0  1.42970E-05  1.89340E+02
   2  7  0  2.50490E-05  1.86400E+02
   2  5  5  9.19772E-03  1.52730E+02
   2  5  6  6.89081E-03  1.61560E+02
   2  5  7  1.36935E-02  1.61610E+02
   2  6  6  8.43928E-05  1.70390E+02
   2  6  7  2.67913E-06  1.70440E+02
   2  7  7  1.74150E-04  1.70490E+02
   3  5  0  1.07310E-04  1.23000E+02
   3  7  0  9.51832E-09  1.27700E+02
   3  5  5  3.84224E-02  1.04720E+02
   3  5  6  4.09857E-01  1.13550E+02
   3  5  7  2.66610E-02  1.13600E+02
   3  6  6  1.11541E-01  1.22380E+02
   3  6  7  4.01870E-01  1.22430E+02
   3  7  7  1.15410E-02  1.22480E+02
   4  5  0  1.00720E-04  1.21410E+02
   4  6  0  4.44840E-09  1.29070E+02
   4  7  0  4.38500E-09  1.26100E+02
   4  5  5  3.74626E-02  1.03760E+02
   4  5  6  1.31656E-02  1.12590E+02
   4  5  7  4.23652E-01  1.12640E+02
   4  6  6  1.74570E-03  1.21420E+02
   4  6  7  2.10574E-01  1.21470E+02
   4  7  7  3.13300E-01  1.21520E+02
   2 30  0  3.97670E-04  4.86832E+01
   2 30 30  9.69519E-01  3.40177E+01
 *** RELAX:  Z = 16,  no. of shells =  7,  no. of transitions =  53
   1 1s1/2 2  2.47600E+03  5.50495E-02
   2 2s1/2 2  2.32000E+02  2.29436E-01
   3 2p1/2 2  1.70000E+02  1.21780E-01
   4 2p3/2 4  1.68000E+02  1.22328E-01
   5 3s1/2 2  2.02000E+01  7.91379E-01
   6 3p1/2 2  1.03600E+01  5.49112E-01
   7 3p3/2 2  1.03600E+01  5.51437E-01
   1  3  0  2.47822E-02  2.30670E+03
   1  4  0  4.90644E-02  2.30789E+03
   1  6  0  1.15591E-03  2.46973E+03
   1  7  0  2.28902E-03  2.46407E+03
   1  2  2  6.79961E-02  2.00396E+03
   1  2  3  7.39684E-02  2.05720E+03
   1  2  4  1.43069E-01  2.05853E+03
   1  2  5  1.42819E-02  2.20898E+03
   1  2  6  4.23283E-03  2.21959E+03
   1  2  7  8.17425E-03  2.21968E+03
   1  3  3  1.31472E-02  2.11044E+03
   1  3  4  3.31099E-01  2.11177E+03
   1  3  5  6.86216E-03  2.26222E+03
   1  3  6  1.45266E-03  2.27283E+03
   1  3  7  1.70618E-02  2.27292E+03
   1  4  4  1.88236E-01  2.11310E+03
   1  4  5  1.32869E-02  2.26355E+03
   1  4  6  1.70457E-02  2.27416E+03
   1  4  7  1.96027E-02  2.27425E+03
   1  5  5  7.44545E-04  2.41400E+03
   1  5  6  3.95703E-04  2.42461E+03
   1  5  7  7.60167E-04  2.42470E+03
   1  6  6  3.64445E-05  2.43522E+03
   1  6  7  7.96592E-04  2.43531E+03
   1  7  7  4.58163E-04  2.43540E+03
   2  3  0  1.30089E-04  5.32400E+01
   2  4  0  3.19088E-04  5.45700E+01
   2  6  0  3.05768E-05  2.27170E+02
   2  7  0  5.14767E-05  2.24960E+02
   2  5  5  8.19136E-03  1.84070E+02
   2  5  6  8.39006E-03  1.94680E+02
   2  5  7  1.66434E-02  1.94770E+02
   2  6  6  1.45352E-04  2.05290E+02
   2  6  7  1.13569E-05  2.05380E+02
   2  7  7  3.03228E-04  2.05470E+02
   3  5  0  2.07430E-04  1.48660E+02
   3  7  0  3.45370E-08  1.60520E+02
   3  5  5  2.44984E-02  1.30830E+02
   3  5  6  3.20372E-01  1.41440E+02
   3  5  7  2.13995E-02  1.41530E+02
   3  6  6  1.35178E-01  1.52050E+02
   3  6  7  4.84421E-01  1.52140E+02
   3  7  7  1.39230E-02  1.52230E+02
   4  5  0  1.95079E-04  1.48660E+02
   4  6  0  1.61379E-08  1.60930E+02
   4  7  0  1.58869E-08  1.58730E+02
   4  5  5  2.39739E-02  1.29500E+02
   4  5  6  1.05269E-02  1.40110E+02
   4  5  7  3.31167E-01  1.40200E+02
   4  6  6  2.17960E-03  1.50720E+02
   4  6  7  2.53969E-01  1.50810E+02
   4  7  7  3.77988E-01  1.50900E+02
   2 30 30  9.65784E-01  3.72100E+01
 *** RELAX:  Z = 14,  no. of shells =  6,  no. of transitions =  51
   1 1s1/2 2  1.84400E+03  6.32596E-02
   2 2s1/2 2  1.54000E+02  2.74105E-01
   3 2p1/2 2  1.04000E+02  1.48493E-01
   4 2p3/2 4  1.04000E+02  1.49030E-01
   5 3s1/2 2  1.34600E+01  1.03443E+00
   6 3p1/2 2  8.15100E+00  7.43235E-01
   1  3  0  1.59791E-02  1.73939E+03
   1  4  0  3.17052E-02  1.73998E+03
   1  6  0  2.72402E-04  1.83596E+03
   1  7  0  5.40444E-04  1.83596E+03
   1  2  2  7.47954E-02  1.52540E+03
   1  2  3  8.01214E-02  1.56828E+03
   1  2  4  1.56131E-01  1.56897E+03
   1  2  5  1.41124E-02  1.66332E+03
   1  2  6  1.95584E-03  1.67040E+03
   1  2  7  3.81585E-03  1.67043E+03
   1  3  3  1.39905E-02  1.61116E+03
   1  3  4  3.56408E-01  1.61185E+03
   1  3  5  6.76231E-03  1.70620E+03
   1  3  6  6.64732E-04  1.71328E+03
   1  3  7  7.97675E-03  1.71331E+03
   1  4  4  2.03104E-01  1.61254E+03
   1  4  5  1.31982E-02  1.70689E+03
   1  4  6  7.96407E-03  1.71397E+03
   1  4  7  9.16547E-03  1.71400E+03
   1  5  5  6.64748E-04  1.80124E+03
   1  5  6  1.66185E-04  1.80832E+03
   1  5  7  3.25975E-04  1.80835E+03
   1  6  6  6.39199E-06  1.81540E+03
   1  6  7  1.08669E-04  1.81543E+03
   1  7  7  6.39185E-05  1.81546E+03
   2  6  0  5.83271E-06  1.55240E+02
   2  7  0  1.07340E-05  1.45030E+02
   2  5  5  1.03158E-02  1.24290E+02
   2  5  6  5.00684E-03  1.31370E+02
   2  5  7  9.95440E-03  1.31400E+02
   2  6  6  3.23120E-05  1.38450E+02
   2  7  7  6.62381E-05  1.38510E+02
   3  5  0  4.72000E-05  9.50400E+01
   3  7  0  1.82830E-09  1.02150E+02
   3  5  5  6.76285E-02  8.14100E+01
   3  5  6  5.54847E-01  8.84900E+01
   3  5  7  3.51351E-02  8.85200E+01
   3  6  6  7.24466E-02  9.55700E+01
   3  6  7  2.62434E-01  9.56000E+01
   3  7  7  7.46220E-03  9.56300E+01
   4  5  0  4.42068E-05  9.43500E+01
   4  6  0  8.54246E-10  1.00630E+02
   4  7  0  8.43116E-10  1.01460E+02
   4  5  5  6.56816E-02  8.07200E+01
   4  5  6  1.73500E-02  8.78000E+01
   4  5  7  5.73636E-01  8.78300E+01
   4  6  6  1.08438E-03  9.48800E+01
   4  6  7  1.37565E-01  9.49100E+01
   4  7  7  2.04639E-01  9.49400E+01
   2 30  0  3.26940E-04  4.33570E+01
   2 30 30  9.74281E-01  3.11037E+01
 *** RELAX:  Z = 29,  no. of shells = 10,  no. of transitions = 158
   1 1s1/2 2  8.98600E+03  2.95096E-02
   2 2s1/2 2  1.10300E+03  1.10809E-01
   3 2p1/2 2  9.58000E+02  5.61903E-02
   4 2p3/2 4  9.38000E+02  5.69789E-02
   5 3s1/2 2  1.27000E+02  3.10672E-01
   6 3p1/2 2  8.20000E+01  1.92987E-01
   7 3p3/2 4  8.00000E+01  1.95626E-01
   8 3d3/2 4  1.10000E+01  1.85026E-01
   9 3d5/2 5  1.04000E+01  1.87154E-01
  10 4s1/2 2  7.72600E+00  1.60814E+00
   1  3  0  1.31119E-01  8.02784E+03
   1  4  0  2.55668E-01  8.04782E+03
   1  6  0  1.58899E-02  8.90541E+03
   1  7  0  3.10908E-02  8.90541E+03
   1  8  0  1.79389E-05  8.97714E+03
   1  9  0  2.59348E-05  8.97714E+03
   1  2  2  3.88567E-02  6.77100E+03
   1  2  3  4.31908E-02  6.89857E+03
   1  2  4  7.68383E-02  6.91961E+03
   1  2  5  1.04073E-02  7.73584E+03
   1  2  6  5.57458E-03  7.77660E+03
   1  2  7  9.82486E-03  7.77924E+03
   1  2  8  2.80672E-04  7.84701E+03
   1  2  9  3.81309E-04  7.84730E+03
   1  2 10  3.54221E-04  7.84999E+03
   1  3  3  7.65781E-03  7.02614E+03
   1  3  4  1.81191E-01  7.04718E+03
   1  3  5  4.90291E-03  7.86341E+03
   1  3  6  1.85044E-03  7.90417E+03
   1  3  7  1.99826E-02  7.90681E+03
   1  3  8  3.89071E-04  7.97458E+03
   1  3  9  1.43235E-03  7.97487E+03
   1  3 10  1.62596E-04  7.97756E+03
   1  4  4  1.00194E-01  7.06822E+03
   1  4  5  8.76108E-03  7.88445E+03
   1  4  6  2.00201E-02  7.92521E+03
   1  4  7  2.24684E-02  7.92785E+03
   1  4  8  1.77886E-03  7.99562E+03
   1  4  9  1.73429E-03  7.99591E+03
   1  4 10  2.92272E-04  7.99860E+03
   1  5  5  7.62703E-04  8.70068E+03
   1  5  6  7.04830E-04  8.74144E+03
   1  5  7  1.24470E-03  8.74408E+03
   1  5  8  3.21362E-05  8.81185E+03
   1  5  9  4.49905E-05  8.81214E+03
   1  5 10  5.14183E-05  8.81483E+03
   1  6  6  1.20557E-04  8.78220E+03
   1  6  7  2.52309E-03  8.78484E+03
   1  6  8  3.72645E-05  8.85261E+03
   1  6  9  1.46859E-04  8.85290E+03
   1  6 10  2.41126E-05  8.85559E+03
   1  7  7  1.52046E-03  8.78748E+03
   1  7  8  1.96192E-04  8.85525E+03
   1  7  9  1.86855E-04  8.85554E+03
   1  7 10  4.43756E-05  8.85823E+03
   1  8  9  1.10707E-05  8.92331E+03
   1  8 10  2.21424E-06  8.92600E+03
   1  9  9  4.12417E-06  8.92360E+03
   1  9 10  4.12417E-06  8.92629E+03
   2  3  0  1.91460E-05  1.27570E+02
   2  4  0  8.71820E-05  1.48610E+02
   2  6  0  6.88360E-04  1.02279E+03
   2  7  0  1.06520E-03  1.02279E+03
   2  8  0  2.60100E-06  1.09270E+03
   2  9  0  3.42210E-06  1.09300E+03
   2  3  8  4.64820E-02  1.17480E+02
   2  3  9  7.46387E-02  1.17770E+02
   2  3 10  1.99240E-03  1.20460E+02
   2  4  6  5.88771E-02  6.81100E+01
   2  4  7  1.25939E-01  7.07500E+01
   2  4  8  1.14171E-01  1.38520E+02
   2  4  9  1.62177E-01  1.38810E+02
   2  4 10  3.56746E-03  1.41500E+02
   2  5  5  1.12747E-02  8.43580E+02
   2  5  6  2.04284E-02  8.84340E+02
   2  5  7  3.97086E-02  8.86980E+02
   2  5  8  2.10300E-02  9.54750E+02
   2  5  9  3.08047E-02  9.55040E+02
   2  5 10  6.83622E-04  9.57730E+02
   2  6  6  3.03846E-04  9.25100E+02
   2  6  7  6.94692E-04  9.27740E+02
   2  6  8  3.37886E-04  9.95510E+02
   2  6  9  6.64782E-03  9.95800E+02
   2  6 10  5.86257E-04  9.98490E+02
   2  7  7  1.07698E-03  9.30380E+02
   2  7  8  7.13355E-03  9.98150E+02
   2  7  9  5.09460E-03  9.98440E+02
   2  7 10  1.18286E-03  1.00113E+03
   2  8  8  5.63180E-04  1.06592E+03
   2  8  9  2.86944E-02  1.06621E+03
   2  8 10  5.17393E-04  1.06890E+03
   2  9  9  8.31045E-03  1.06650E+03
   2  9 10  8.00352E-04  1.06919E+03
   3  5  0  4.65603E-03  8.32100E+02
   3  7  0  1.62541E-05  8.78500E+02
   3  8  0  4.42993E-03  9.49840E+02
   3 10  0  1.20891E-04  9.51420E+02
   3  5  5  3.62933E-03  7.16010E+02
   3  5  6  6.68802E-02  7.56770E+02
   3  5  7  5.61858E-03  7.59410E+02
   3  5  8  3.11852E-03  8.27180E+02
   3  5  9  6.83737E-03  8.27470E+02
   3  5 10  2.10585E-04  8.30160E+02
   3  6  6  5.77499E-02  7.97530E+02
   3  6  7  1.98084E-01  8.00170E+02
   3  6  8  6.92466E-02  8.67940E+02
   3  6  9  1.31715E-01  8.68230E+02
   3  6 10  2.26721E-03  8.70920E+02
   3  7  7  5.52451E-03  8.02810E+02
   3  7  8  8.26916E-02  8.70580E+02
   3  7  9  1.22043E-02  8.70870E+02
   3  7 10  1.70255E-04  8.73560E+02
   3  8  8  5.84943E-02  9.38350E+02
   3  8  9  2.65016E-01  9.38640E+02
   3  8 10  1.12427E-04  9.41330E+02
   3  9  9  1.20386E-02  9.38930E+02
   3  9 10  2.19538E-04  9.41620E+02
   4  5  0  4.33818E-03  8.11080E+02
   4  6  0  8.20307E-06  8.55800E+02
   4  7  0  7.94827E-06  8.58800E+02
   4  8  0  3.70919E-04  9.29680E+02
   4  9  0  3.97209E-03  9.29680E+02
   4 10  0  1.06190E-04  9.30380E+02
   4  5  5  3.73446E-03  6.94970E+02
   4  5  6  2.60360E-03  7.35730E+02
   4  5  7  6.94080E-02  7.38370E+02
   4  5  8  4.66601E-03  8.06140E+02
   4  5  9  5.73035E-03  8.06430E+02
   4  5 10  2.17322E-04  8.09120E+02
   4  6  6  9.75756E-04  7.76490E+02
   4  6  7  1.05475E-01  7.79130E+02
   4  6  8  4.55055E-03  8.46900E+02
   4  6  9  4.33586E-02  8.47190E+02
   4  6 10  7.98344E-05  8.49880E+02
   4  7  7  1.54845E-01  7.81770E+02
   4  7  8  1.01637E-01  8.49540E+02
   4  7  9  1.52475E-01  8.49830E+02
   4  7 10  2.34172E-03  8.52520E+02
   4  8  8  9.71767E-03  9.17310E+02
   4  8  9  1.96561E-01  9.17600E+02
   4  8 10  1.50793E-04  9.20290E+02
   4  9  9  1.32479E-01  9.17890E+02
   4  9 10  1.90728E-04  9.20580E+02
   5  8  8  3.64835E-03  1.01080E+02
   5  8  9  5.39118E-02  1.01370E+02
   5  8 10  1.58988E-02  1.04060E+02
   5  9  9  2.70922E-02  1.01660E+02
   5  9 10  3.43707E-02  1.04350E+02
   6  8  0  1.91500E-05  7.04100E+01
   6 10  0  2.33800E-06  7.33900E+01
   6  8  8  1.53632E-01  6.03200E+01
   6  8  9  7.98786E-01  6.06100E+01
   6  8 10  1.91501E-02  6.33000E+01
   6  9  9  2.43355E-02  6.09000E+01
   6  9 10  4.07449E-03  6.35900E+01
   7  8  0  1.74600E-06  6.77700E+01
   7  9  0  1.59670E-05  6.80600E+01
   7 10  0  9.55071E-07  7.07500E+01
   7  8  8  2.35524E-02  5.76800E+01
   7  8  9  5.54813E-01  5.79700E+01
   7  8 10  4.32518E-03  6.06600E+01
   7  9  9  3.96490E-01  5.82600E+01
   7  9 10  2.08001E-02  6.09500E+01
   2 30 30  2.24416E-01  3.84504E+01
   3 30  0  5.18584E-10  2.10400E+01
   3 30 30  8.94776E-03  1.39300E+01
   5 30  0  2.82323E-05  4.26355E+01
   5 30 30  8.65050E-01  3.28258E+01
 *** RELAX:  Z = 28,  no. of shells = 10,  no. of transitions = 156
   1 1s1/2 2  8.33800E+03  3.06276E-02
   2 2s1/2 2  1.01500E+03  1.15436E-01
   3 2p1/2 2  8.77000E+02  5.86296E-02
   4 2p3/2 4  8.60000E+02  5.93958E-02
   5 3s1/2 2  1.17000E+02  3.20679E-01
   6 3p1/2 2  7.50000E+01  1.99846E-01
   7 3p3/2 4  7.30000E+01  2.02278E-01
   8 3d3/2 4  1.00000E+01  1.79793E-01
   9 3d5/2 4  1.00000E+01  1.81031E-01
  10 4s1/2 2  7.63500E+00  1.45309E+00
   1  3  0  1.21060E-01  7.46103E+03
   1  4  0  2.36419E-01  7.47825E+03
   1  6  0  1.48050E-02  8.26477E+03
   1  7  0  2.90299E-02  8.26477E+03
   1  8  0  1.26910E-05  8.32868E+03
   1  9  0  1.84450E-05  8.32868E+03
   1  2  2  4.06788E-02  6.28980E+03
   1  2  3  4.51818E-02  6.41132E+03
   1  2  4  8.10999E-02  6.42928E+03
   1  2  5  1.09920E-02  7.17766E+03
   1  2  6  5.89415E-03  7.21582E+03
   1  2  7  1.04968E-02  7.21809E+03
   1  2  8  2.45244E-04  7.28138E+03
   1  2  9  3.36680E-04  7.28164E+03
   1  2 10  9.04076E-04  7.28821E+03
   1  3  3  8.05326E-03  6.53284E+03
   1  3  4  1.91464E-01  6.55080E+03
   1  3  5  5.18552E-03  7.29918E+03
   1  3  6  1.97028E-03  7.33734E+03
   1  3  7  2.14086E-02  7.33961E+03
   1  3  8  3.40843E-04  7.40290E+03
   1  3  9  1.25951E-03  7.40316E+03
   1  3 10  4.17749E-04  7.40973E+03
