 PENELOPE (v. 2012)  Material data file ...............
 Material: CuAl2                                                         
 Mass density = 4.36000000E+00 g/cm**3
 Number of elements in the molecule =  2
   atomic number = 29,  atoms/molecule = 1.00000000E+00
   atomic number = 13,  atoms/molecule = 2.00000000E+00
 Mean excitation energy = 2.35412569E+02 eV
 Number of oscillators = 13 (E/P inelastic model)
   1  7.00000000E+00  0.00000000E+00  1.46854615E+01   0  30
   2  1.00000000E+01  1.05075000E+01  2.96553134E+01   0  30
   3  4.00000000E+00  7.70000000E+01  2.07106771E+02  13   3
   4  8.00000000E+00  7.70000000E+01  2.07305021E+02  13   4
   5  4.00000000E+00  8.00000000E+01  2.15160700E+02  29   7
   6  2.00000000E+00  8.20000000E+01  2.20437132E+02  29   6
   7  4.00000000E+00  1.21000000E+02  3.25267979E+02  13   2
   8  2.00000000E+00  1.27000000E+02  3.41324570E+02  29   5
   9  4.00000000E+00  9.38000000E+02  2.52053596E+03  29   4
  10  2.00000000E+00  9.58000000E+02  2.57427007E+03  29   3
  11  2.00000000E+00  1.10300000E+03  2.96390159E+03  29   2
  12  4.00000000E+00  1.56400000E+03  4.20266730E+03  13   1
  13  2.00000000E+00  8.98600000E+03  2.41464718E+04  29   1
 Number of shells = 13 (Compton IA model)
   1  7.00000000E+00  0.00000000E+00  9.05354646E-01   0  30
   2  1.00000000E+01  1.05075000E+01  2.91395400E-01   0  30
   3  8.00000000E+00  7.70000000E+01  1.67604000E-01  13   4
   4  4.00000000E+00  7.70000000E+01  1.67061000E-01  13   3
   5  4.00000000E+00  8.00000000E+01  1.95626000E-01  29   7
   6  2.00000000E+00  8.20000000E+01  1.92987000E-01  29   6
   7  4.00000000E+00  1.21000000E+02  3.03886000E-01  13   2
   8  2.00000000E+00  1.27000000E+02  3.10672000E-01  29   5
   9  4.00000000E+00  9.38000000E+02  5.69789000E-02  29   4
  10  2.00000000E+00  9.58000000E+02  5.61903000E-02  29   3
  11  2.00000000E+00  1.10300000E+03  1.10809000E-01  29   2
  12  4.00000000E+00  1.56400000E+03  6.83322000E-02  13   1
  13  2.00000000E+00  8.98600000E+03  2.95096000E-02  29   1
 *** RELAX:  Z = 29,  no. of shells = 10,  no. of transitions = 158
   1 1s1/2 2  8.98600E+03  2.95096E-02
   2 2s1/2 2  1.10300E+03  1.10809E-01
   3 2p1/2 2  9.58000E+02  5.61903E-02
   4 2p3/2 4  9.38000E+02  5.69789E-02
   5 3s1/2 2  1.27000E+02  3.10672E-01
   6 3p1/2 2  8.20000E+01  1.92987E-01
   7 3p3/2 4  8.00000E+01  1.95626E-01
   8 3d3/2 4  1.10000E+01  1.85026E-01
   9 3d5/2 5  1.04000E+01  1.87154E-01
  10 4s1/2 2  7.72600E+00  1.60814E+00
   1  3  0  1.31119E-01  8.02784E+03
   1  4  0  2.55668E-01  8.04782E+03
   1  6  0  1.58899E-02  8.90541E+03
   1  7  0  3.10908E-02  8.90541E+03
   1  8  0  1.79389E-05  8.97714E+03
   1  9  0  2.59348E-05  8.97714E+03
   1  2  2  3.88567E-02  6.77100E+03
   1  2  3  4.31908E-02  6.89857E+03
   1  2  4  7.68383E-02  6.91961E+03
   1  2  5  1.04073E-02  7.73584E+03
   1  2  6  5.57458E-03  7.77660E+03
   1  2  7  9.82486E-03  7.77924E+03
   1  2  8  2.80672E-04  7.84701E+03
   1  2  9  3.81309E-04  7.84730E+03
   1  2 10  3.54221E-04  7.84999E+03
   1  3  3  7.65781E-03  7.02614E+03
   1  3  4  1.81191E-01  7.04718E+03
   1  3  5  4.90291E-03  7.86341E+03
   1  3  6  1.85044E-03  7.90417E+03
   1  3  7  1.99826E-02  7.90681E+03
   1  3  8  3.89071E-04  7.97458E+03
   1  3  9  1.43235E-03  7.97487E+03
   1  3 10  1.62596E-04  7.97756E+03
   1  4  4  1.00194E-01  7.06822E+03
   1  4  5  8.76108E-03  7.88445E+03
   1  4  6  2.00201E-02  7.92521E+03
   1  4  7  2.24684E-02  7.92785E+03
   1  4  8  1.77886E-03  7.99562E+03
   1  4  9  1.73429E-03  7.99591E+03
   1  4 10  2.92272E-04  7.99860E+03
   1  5  5  7.62703E-04  8.70068E+03
   1  5  6  7.04830E-04  8.74144E+03
   1  5  7  1.24470E-03  8.74408E+03
   1  5  8  3.21362E-05  8.81185E+03
   1  5  9  4.49905E-05  8.81214E+03
   1  5 10  5.14183E-05  8.81483E+03
   1  6  6  1.20557E-04  8.78220E+03
   1  6  7  2.52309E-03  8.78484E+03
   1  6  8  3.72645E-05  8.85261E+03
   1  6  9  1.46859E-04  8.85290E+03
   1  6 10  2.41126E-05  8.85559E+03
   1  7  7  1.52046E-03  8.78748E+03
   1  7  8  1.96192E-04  8.85525E+03
   1  7  9  1.86855E-04  8.85554E+03
   1  7 10  4.43756E-05  8.85823E+03
   1  8  9  1.10707E-05  8.92331E+03
   1  8 10  2.21424E-06  8.92600E+03
   1  9  9  4.12417E-06  8.92360E+03
   1  9 10  4.12417E-06  8.92629E+03
   2  3  0  1.91460E-05  1.27570E+02
   2  4  0  8.71820E-05  1.48610E+02
   2  6  0  6.88360E-04  1.02279E+03
   2  7  0  1.06520E-03  1.02279E+03
   2  8  0  2.60100E-06  1.09270E+03
   2  9  0  3.42210E-06  1.09300E+03
   2  3  8  4.64820E-02  1.17480E+02
   2  3  9  7.46387E-02  1.17770E+02
   2  3 10  1.99240E-03  1.20460E+02
   2  4  6  5.88771E-02  6.81100E+01
   2  4  7  1.25939E-01  7.07500E+01
   2  4  8  1.14171E-01  1.38520E+02
   2  4  9  1.62177E-01  1.38810E+02
   2  4 10  3.56746E-03  1.41500E+02
   2  5  5  1.12747E-02  8.43580E+02
   2  5  6  2.04284E-02  8.84340E+02
   2  5  7  3.97086E-02  8.86980E+02
   2  5  8  2.10300E-02  9.54750E+02
   2  5  9  3.08047E-02  9.55040E+02
   2  5 10  6.83622E-04  9.57730E+02
   2  6  6  3.03846E-04  9.25100E+02
   2  6  7  6.94692E-04  9.27740E+02
   2  6  8  3.37886E-04  9.95510E+02
   2  6  9  6.64782E-03  9.95800E+02
   2  6 10  5.86257E-04  9.98490E+02
   2  7  7  1.07698E-03  9.30380E+02
   2  7  8  7.13355E-03  9.98150E+02
   2  7  9  5.09460E-03  9.98440E+02
   2  7 10  1.18286E-03  1.00113E+03
   2  8  8  5.63180E-04  1.06592E+03
   2  8  9  2.86944E-02  1.06621E+03
   2  8 10  5.17393E-04  1.06890E+03
   2  9  9  8.31045E-03  1.06650E+03
   2  9 10  8.00352E-04  1.06919E+03
   3  5  0  4.65603E-03  8.32100E+02
   3  7  0  1.62541E-05  8.78500E+02
   3  8  0  4.42993E-03  9.49840E+02
   3 10  0  1.20891E-04  9.51420E+02
   3  5  5  3.62933E-03  7.16010E+02
   3  5  6  6.68802E-02  7.56770E+02
   3  5  7  5.61858E-03  7.59410E+02
   3  5  8  3.11852E-03  8.27180E+02
   3  5  9  6.83737E-03  8.27470E+02
   3  5 10  2.10585E-04  8.30160E+02
   3  6  6  5.77499E-02  7.97530E+02
   3  6  7  1.98084E-01  8.00170E+02
   3  6  8  6.92466E-02  8.67940E+02
   3  6  9  1.31715E-01  8.68230E+02
   3  6 10  2.26721E-03  8.70920E+02
   3  7  7  5.52451E-03  8.02810E+02
   3  7  8  8.26916E-02  8.70580E+02
   3  7  9  1.22043E-02  8.70870E+02
   3  7 10  1.70255E-04  8.73560E+02
   3  8  8  5.84943E-02  9.38350E+02
   3  8  9  2.65016E-01  9.38640E+02
   3  8 10  1.12427E-04  9.41330E+02
   3  9  9  1.20386E-02  9.38930E+02
   3  9 10  2.19538E-04  9.41620E+02
   4  5  0  4.33818E-03  8.11080E+02
   4  6  0  8.20307E-06  8.55800E+02
   4  7  0  7.94827E-06  8.58800E+02
   4  8  0  3.70919E-04  9.29680E+02
   4  9  0  3.97209E-03  9.29680E+02
   4 10  0  1.06190E-04  9.30380E+02
   4  5  5  3.73446E-03  6.94970E+02
   4  5  6  2.60360E-03  7.35730E+02
   4  5  7  6.94080E-02  7.38370E+02
   4  5  8  4.66601E-03  8.06140E+02
   4  5  9  5.73035E-03  8.06430E+02
   4  5 10  2.17322E-04  8.09120E+02
   4  6  6  9.75756E-04  7.76490E+02
   4  6  7  1.05475E-01  7.79130E+02
   4  6  8  4.55055E-03  8.46900E+02
   4  6  9  4.33586E-02  8.47190E+02
   4  6 10  7.98344E-05  8.49880E+02
   4  7  7  1.54845E-01  7.81770E+02
   4  7  8  1.01637E-01  8.49540E+02
   4  7  9  1.52475E-01  8.49830E+02
   4  7 10  2.34172E-03  8.52520E+02
   4  8  8  9.71767E-03  9.17310E+02
   4  8  9  1.96561E-01  9.17600E+02
   4  8 10  1.50793E-04  9.20290E+02
   4  9  9  1.32479E-01  9.17890E+02
   4  9 10  1.90728E-04  9.20580E+02
   5  8  8  3.64835E-03  1.01080E+02
   5  8  9  5.39118E-02  1.01370E+02
   5  8 10  1.58988E-02  1.04060E+02
   5  9  9  2.70922E-02  1.01660E+02
   5  9 10  3.43707E-02  1.04350E+02
   6  8  0  1.91500E-05  7.04100E+01
   6 10  0  2.33800E-06  7.33900E+01
   6  8  8  1.53632E-01  6.03200E+01
   6  8  9  7.98786E-01  6.06100E+01
   6  8 10  1.91501E-02  6.33000E+01
   6  9  9  2.43355E-02  6.09000E+01
   6  9 10  4.07449E-03  6.35900E+01
   7  8  0  1.74600E-06  6.77700E+01
   7  9  0  1.59670E-05  6.80600E+01
   7 10  0  9.55071E-07  7.07500E+01
   7  8  8  2.35524E-02  5.76800E+01
   7  8  9  5.54813E-01  5.79700E+01
   7  8 10  4.32518E-03  6.06600E+01
   7  9  9  3.96490E-01  5.82600E+01
   7  9 10  2.08001E-02  6.09500E+01
   2 30 30  2.24416E-01  3.84504E+01
   3 30  0  5.18584E-10  2.10400E+01
   3 30 30  8.94776E-03  1.39300E+01
   5 30  0  2.82323E-05  4.26355E+01
   5 30 30  8.65050E-01  3.28258E+01
 *** RELAX:  Z = 13,  no. of shells =  6,  no. of transitions =  40
   1 1s1/2 2  1.56400E+03  6.83322E-02
   2 2s1/2 2  1.21000E+02  3.03886E-01
   3 2p1/2 2  7.70000E+01  1.67061E-01
   4 2p3/2 4  7.70000E+01  1.67604E-01
   5 3s1/2 2  9.07500E+00  1.23808E+00
   6 3p1/2 1  9.07500E+00  9.18119E-01
   1  3  0  1.23699E-02  1.48630E+03
   1  4  0  2.45528E-02  1.48671E+03
   1  6  0  7.55854E-05  1.55757E+03
   1  7  0  1.50039E-04  1.55757E+03
   1  2  2  7.83944E-02  1.31180E+03
   1  2  3  8.32180E-02  1.34965E+03
   1  2  4  1.62725E-01  1.35012E+03
   1  2  5  1.35884E-02  1.42069E+03
   1  2  6  8.96794E-04  1.42597E+03
   1  2  7  1.76485E-03  1.42598E+03
   1  3  3  1.42920E-02  1.38750E+03
   1  3  4  3.66942E-01  1.38797E+03
   1  3  5  6.49294E-03  1.45854E+03
   1  3  6  3.01318E-04  1.46382E+03
   1  3  7  3.65883E-03  1.46383E+03
   1  4  4  2.09226E-01  1.38844E+03
   1  4  5  1.27063E-02  1.45901E+03
   1  4  6  3.65189E-03  1.46429E+03
   1  4  7  4.20421E-03  1.46430E+03
   1  5  5  5.81139E-04  1.52958E+03
   1  5  6  7.17440E-05  1.53486E+03
   1  5  7  1.36311E-04  1.53487E+03
   2  6  0  2.07691E-06  1.22300E+02
   2  7  0  4.02982E-06  1.14180E+02
   2  5  5  1.12532E-02  9.87300E+01
   2  5  6  2.61944E-03  1.04010E+02
   2  5  7  5.21749E-03  1.04020E+02
   3  5  0  1.60531E-05  7.10400E+01
   3  7  0  1.75611E-10  7.63300E+01
   3  5  5  1.50408E-01  6.08800E+01
   3  5  6  8.00076E-01  6.61600E+01
   3  5  7  4.94996E-02  6.61700E+01
   4  5  0  1.49999E-05  7.05700E+01
   4  6  0  8.20316E-11  7.58500E+01
   4  7  0  8.10126E-11  7.58600E+01
   4  5  5  1.44757E-01  6.04100E+01
   4  5  6  2.47625E-02  6.56900E+01
   4  5  7  8.30465E-01  6.57000E+01
   2 30  0  2.49536E-04  3.81712E+01
   2 30 30  9.80654E-01  2.85014E+01
 *** Electron scaled bremss x-section,  ZEQ = 1.98242E+01,  NDATA =  57
 1.00E+03 7.38788E+00 7.47721E+00 7.56470E+00 7.64900E+00 7.73043E+00
          7.88636E+00 8.03187E+00 8.16668E+00 8.29123E+00 8.40713E+00
          8.51683E+00 8.62107E+00 8.72024E+00 8.81582E+00 8.91159E+00
          9.01065E+00 9.11249E+00 9.21522E+00 9.31637E+00 9.41353E+00
          9.50303E+00 9.54502E+00 9.59037E+00 9.63257E+00 9.68706E+00
          9.70282E+00 9.71433E+00 9.71554E+00 9.71685E+00 9.71709E+00
          9.71710E+00 9.71721E+00                                     7.487E+00
 1.50E+03 9.10923E+00 9.20746E+00 9.30248E+00 9.39182E+00 9.47611E+00
          9.63260E+00 9.77146E+00 9.89284E+00 9.99835E+00 1.00914E+01
          1.01770E+01 1.02565E+01 1.03308E+01 1.04017E+01 1.04731E+01
          1.05486E+01 1.06284E+01 1.07117E+01 1.07978E+01 1.08868E+01
          1.09776E+01 1.10222E+01 1.10648E+01 1.10961E+01 1.11270E+01
          1.11353E+01 1.11415E+01 1.11421E+01 1.11427E+01 1.11429E+01
          1.11429E+01 1.11429E+01                                     8.881E+00
 2.00E+03 1.04780E+01 1.05868E+01 1.06908E+01 1.07860E+01 1.08734E+01
          1.10294E+01 1.11583E+01 1.12613E+01 1.13414E+01 1.14048E+01
          1.14600E+01 1.15094E+01 1.15543E+01 1.15967E+01 1.16407E+01
          1.16903E+01 1.17459E+01 1.18069E+01 1.18731E+01 1.19458E+01
          1.20248E+01 1.20646E+01 1.21000E+01 1.21220E+01 1.21403E+01
          1.21450E+01 1.21485E+01 1.21488E+01 1.21491E+01 1.21491E+01
          1.21491E+01 1.21492E+01                                     9.943E+00
 3.00E+03 1.25871E+01 1.27215E+01 1.28456E+01 1.29517E+01 1.30416E+01
          1.31844E+01 1.32805E+01 1.33388E+01 1.33657E+01 1.33706E+01
          1.33658E+01 1.33554E+01 1.33417E+01 1.33279E+01 1.33185E+01
          1.33177E+01 1.33260E+01 1.33420E+01 1.33645E+01 1.33961E+01
          1.34393E+01 1.34632E+01 1.34808E+01 1.34873E+01 1.34927E+01
          1.34939E+01 1.34942E+01 1.34941E+01 1.34942E+01 1.34942E+01
          1.34943E+01 1.34942E+01                                     1.150E+01
 4.00E+03 1.41843E+01 1.43483E+01 1.44943E+01 1.46086E+01 1.46951E+01
          1.48077E+01 1.48542E+01 1.48603E+01 1.48357E+01 1.47904E+01
          1.47373E+01 1.46794E+01 1.46180E+01 1.45556E+01 1.44964E+01
          1.44453E+01 1.44040E+01 1.43740E+01 1.43569E+01 1.43530E+01
          1.43582E+01 1.43604E+01 1.43606E+01 1.43581E+01 1.43533E+01
          1.43518E+01 1.43506E+01 1.43504E+01 1.43503E+01 1.43502E+01
          1.43502E+01 1.43502E+01                                     1.262E+01
 5.00E+03 1.54859E+01 1.56448E+01 1.57860E+01 1.58961E+01 1.59787E+01
          1.60817E+01 1.61083E+01 1.60761E+01 1.59981E+01 1.58925E+01
          1.57818E+01 1.56716E+01 1.55624E+01 1.54568E+01 1.53585E+01
          1.52719E+01 1.51967E+01 1.51302E+01 1.50708E+01 1.50229E+01
          1.49913E+01 1.49804E+01 1.49662E+01 1.49511E+01 1.49386E+01
          1.49356E+01 1.49327E+01 1.49323E+01 1.49321E+01 1.49320E+01
          1.49321E+01 1.49320E+01                                     1.347E+01
 6.00E+03 1.65596E+01 1.67229E+01 1.68655E+01 1.69719E+01 1.70462E+01
          1.71233E+01 1.71133E+01 1.70378E+01 1.69125E+01 1.67588E+01
          1.66028E+01 1.64506E+01 1.63022E+01 1.61597E+01 1.60257E+01
          1.59037E+01 1.57936E+01 1.56919E+01 1.55969E+01 1.55139E+01
          1.54491E+01 1.54229E+01 1.53950E+01 1.53710E+01 1.53504E+01
          1.53456E+01 1.53413E+01 1.53407E+01 1.53404E+01 1.53403E+01
          1.53403E+01 1.53403E+01                                     1.413E+01
 8.00E+03 1.82685E+01 1.84298E+01 1.85657E+01 1.86567E+01 1.87086E+01
          1.87270E+01 1.86438E+01 1.84872E+01 1.82771E+01 1.80396E+01
          1.78056E+01 1.75820E+01 1.73683E+01 1.71650E+01 1.69728E+01
          1.67927E+01 1.66240E+01 1.64625E+01 1.63063E+01 1.61628E+01
          1.60414E+01 1.59895E+01 1.59383E+01 1.58979E+01 1.58614E+01
          1.58528E+01 1.58456E+01 1.58447E+01 1.58440E+01 1.58440E+01
          1.58439E+01 1.58439E+01                                     1.512E+01
 1.00E+04 1.95892E+01 1.97393E+01 1.98600E+01 1.99292E+01 1.99541E+01
          1.99095E+01 1.97546E+01 1.95235E+01 1.92389E+01 1.89299E+01
          1.86303E+01 1.83474E+01 1.80804E+01 1.78287E+01 1.75906E+01
          1.73647E+01 1.71494E+01 1.69399E+01 1.67338E+01 1.65407E+01
          1.63736E+01 1.63009E+01 1.62301E+01 1.61749E+01 1.61234E+01
          1.61111E+01 1.61011E+01 1.60999E+01 1.60989E+01 1.60988E+01
          1.60987E+01 1.60987E+01                                     1.581E+01
 1.50E+04 2.18837E+01 2.20667E+01 2.21928E+01 2.22196E+01 2.21637E+01
          2.18960E+01 2.14957E+01 2.10703E+01 2.06439E+01 2.02266E+01
          1.98287E+01 1.94483E+01 1.90821E+01 1.87269E+01 1.83883E+01
          1.80688E+01 1.77663E+01 1.74731E+01 1.71845E+01 1.69098E+01
          1.66587E+01 1.65417E+01 1.64302E+01 1.63467E+01 1.62645E+01
          1.62446E+01 1.62288E+01 1.62267E+01 1.62252E+01 1.62250E+01
          1.62248E+01 1.62248E+01                                     1.684E+01
 2.00E+04 2.37715E+01 2.37522E+01 2.36969E+01 2.35794E+01 2.34125E+01
          2.29928E+01 2.24910E+01 2.19631E+01 2.14286E+01 2.09034E+01
          2.04050E+01 1.99344E+01 1.94893E+01 1.90639E+01 1.86593E+01
          1.82724E+01 1.79031E+01 1.75486E+01 1.72076E+01 1.68838E+01
          1.65826E+01 1.64440E+01 1.63192E+01 1.62274E+01 1.60953E+01
          1.60479E+01 1.60418E+01 1.60452E+01 1.60415E+01 1.60397E+01
          1.60425E+01 1.60406E+01                                     1.737E+01
 3.00E+04 2.57952E+01 2.57128E+01 2.55848E+01 2.53782E+01 2.51106E+01
          2.44749E+01 2.37379E+01 2.29603E+01 2.21742E+01 2.14145E+01
          2.07156E+01 2.00849E+01 1.95162E+01 1.89991E+01 1.85300E+01
          1.80975E+01 1.76911E+01 1.72876E+01 1.68711E+01 1.64636E+01
          1.60871E+01 1.59062E+01 1.57200E+01 1.55716E+01 1.54480E+01
          1.54177E+01 1.53920E+01 1.53889E+01 1.53866E+01 1.53861E+01
          1.53861E+01 1.53859E+01                                     1.784E+01
 4.00E+04 2.72930E+01 2.70867E+01 2.68335E+01 2.65002E+01 2.61077E+01
          2.52385E+01 2.42919E+01 2.33313E+01 2.23875E+01 2.14928E+01
          2.06776E+01 1.99470E+01 1.92927E+01 1.87005E+01 1.81658E+01
          1.76776E+01 1.72227E+01 1.67756E+01 1.63180E+01 1.58688E+01
          1.54464E+01 1.52412E+01 1.50314E+01 1.48660E+01 1.47285E+01
          1.46950E+01 1.46666E+01 1.46633E+01 1.46607E+01 1.46602E+01
          1.46601E+01 1.46599E+01                                     1.799E+01
 5.00E+04 2.84087E+01 2.80842E+01 2.77139E+01 2.72659E+01 2.67637E+01
          2.56961E+01 2.45782E+01 2.34733E+01 2.24088E+01 2.14118E+01
          2.05097E+01 1.97037E+01 1.89844E+01 1.83338E+01 1.77444E+01
          1.72059E+01 1.67045E+01 1.62177E+01 1.57285E+01 1.52492E+01
          1.47936E+01 1.45733E+01 1.43530E+01 1.41827E+01 1.40351E+01
          1.39995E+01 1.39701E+01 1.39666E+01 1.39638E+01 1.39634E+01
          1.39632E+01 1.39631E+01                                     1.801E+01
 6.00E+04 2.93772E+01 2.89121E+01 2.84060E+01 2.78308E+01 2.72112E+01
          2.59401E+01 2.46629E+01 2.34475E+01 2.23111E+01 2.12636E+01
          2.03169E+01 1.94659E+01 1.86944E+01 1.79822E+01 1.73262E+01
          1.67252E+01 1.61704E+01 1.56517E+01 1.51566E+01 1.46671E+01
          1.41739E+01 1.39347E+01 1.37099E+01 1.35470E+01 1.33908E+01
          1.33540E+01 1.33241E+01 1.33203E+01 1.33175E+01 1.33171E+01
          1.33170E+01 1.33168E+01                                     1.797E+01
 8.00E+04 3.07978E+01 3.00261E+01 2.92465E+01 2.84560E+01 2.76725E+01
          2.61774E+01 2.47568E+01 2.34131E+01 2.21500E+01 2.09715E+01
          1.98878E+01 1.89050E+01 1.80167E+01 1.72132E+01 1.64896E+01
          1.58437E+01 1.52549E+01 1.46895E+01 1.41222E+01 1.35666E+01
          1.30416E+01 1.27955E+01 1.25681E+01 1.24046E+01 1.22395E+01
          1.21996E+01 1.21697E+01 1.21660E+01 1.21630E+01 1.21626E+01
          1.21624E+01 1.21623E+01                                     1.784E+01
 1.00E+05 3.18552E+01 3.08705E+01 2.98911E+01 2.89244E+01 2.79874E+01
          2.62417E+01 2.46367E+01 2.31614E+01 2.18063E+01 2.05627E+01
          1.94250E+01 1.83945E+01 1.74583E+01 1.66008E+01 1.58088E+01
          1.50794E+01 1.44087E+01 1.37918E+01 1.32201E+01 1.26591E+01
          1.20846E+01 1.18076E+01 1.15674E+01 1.14116E+01 1.12433E+01
          1.11978E+01 1.11678E+01 1.11652E+01 1.11616E+01 1.11610E+01
          1.11609E+01 1.11609E+01                                     1.768E+01
 1.50E+05 3.29758E+01 3.18982E+01 3.08001E+01 2.96704E+01 2.85374E+01
          2.63628E+01 2.43428E+01 2.25306E+01 2.09257E+01 1.95290E+01
          1.83365E+01 1.72904E+01 1.63005E+01 1.53237E+01 1.44029E+01
          1.35696E+01 1.28099E+01 1.21010E+01 1.14336E+01 1.07991E+01
          1.01948E+01 9.90945E+00 9.64179E+00 9.44367E+00 9.26285E+00
          9.22086E+00 9.18833E+00 9.18407E+00 9.18087E+00 9.18051E+00
          9.18013E+00 9.18011E+00                                     1.734E+01
 2.00E+05 3.41153E+01 3.25994E+01 3.11253E+01 2.97282E+01 2.84150E+01
          2.60293E+01 2.39171E+01 2.20417E+01 2.03705E+01 1.88787E+01
          1.75505E+01 1.63624E+01 1.52889E+01 1.43030E+01 1.33747E+01
          1.24884E+01 1.16557E+01 1.08840E+01 1.01729E+01 9.50321E+00
          8.86156E+00 8.55381E+00 8.25477E+00 8.03191E+00 7.84663E+00
          7.80357E+00 7.76839E+00 7.76432E+00 7.76103E+00 7.76045E+00
          7.76024E+00 7.76006E+00                                     1.709E+01
 3.00E+05 3.53540E+01 3.34459E+01 3.16233E+01 2.99520E+01 2.84211E+01
          2.56875E+01 2.33251E+01 2.12742E+01 1.94889E+01 1.79134E+01
          1.65049E+01 1.52371E+01 1.40843E+01 1.30224E+01 1.20252E+01
          1.10781E+01 1.01871E+01 9.36241E+00 8.59621E+00 7.86994E+00
          7.17492E+00 6.84294E+00 6.52494E+00 6.29034E+00 6.08893E+00
          6.04180E+00 6.00393E+00 5.99955E+00 5.99591E+00 5.99537E+00
          5.99504E+00 5.99486E+00                                     1.694E+01
 4.00E+05 3.62318E+01 3.40514E+01 3.19953E+01 3.01555E+01 2.84995E+01
          2.55608E+01 2.30541E+01 2.08926E+01 1.90270E+01 1.73914E+01
          1.59276E+01 1.46052E+01 1.33995E+01 1.22880E+01 1.12499E+01
          1.02718E+01 9.35329E+00 8.49678E+00 7.69803E+00 6.93728E+00
          6.20969E+00 5.86336E+00 5.53704E+00 5.29811E+00 5.07997E+00
          5.02916E+00 4.98929E+00 4.98433E+00 4.98040E+00 4.97998E+00
          4.97944E+00 4.97943E+00                                     1.708E+01
 5.00E+05 3.69522E+01 3.45726E+01 3.23491E+01 3.03950E+01 2.86559E+01
          2.55712E+01 2.29638E+01 2.07286E+01 1.88058E+01 1.71231E+01
          1.56134E+01 1.42459E+01 1.30005E+01 1.18567E+01 1.07912E+01
          9.78881E+00 8.84752E+00 7.96799E+00 7.14945E+00 6.37076E+00
          5.62027E+00 5.25982E+00 4.91936E+00 4.66871E+00 4.43762E+00
          4.38339E+00 4.34109E+00 4.33592E+00 4.33170E+00 4.33118E+00
          4.33074E+00 4.33076E+00                                     1.736E+01
 6.00E+05 3.75715E+01 3.50407E+01 3.26924E+01 3.06583E+01 2.88631E+01
          2.56717E+01 2.29887E+01 2.06998E+01 1.87322E+01 1.70097E+01
          1.54632E+01 1.40612E+01 1.27847E+01 1.16141E+01 1.05255E+01
          9.50311E+00 8.54373E+00 7.64628E+00 6.80965E+00 6.01627E+00
          5.24647E+00 4.87340E+00 4.51742E+00 4.25203E+00 4.00828E+00
          3.95098E+00 3.90591E+00 3.90041E+00 3.89593E+00 3.89536E+00
          3.89492E+00 3.89494E+00                                     1.773E+01
 8.00E+05 3.85971E+01 3.58555E+01 3.33373E+01 3.11996E+01 2.93357E+01
          2.60031E+01 2.32164E+01 2.08574E+01 1.88302E+01 1.70525E+01
          1.54543E+01 1.40044E+01 1.26837E+01 1.14723E+01 1.03464E+01
          9.28961E+00 8.29759E+00 7.36739E+00 6.49481E+00 5.66747E+00
          4.85894E+00 4.46129E+00 4.07551E+00 3.78174E+00 3.50986E+00
          3.44494E+00 3.39337E+00 3.38703E+00 3.38194E+00 3.38128E+00
          3.38082E+00 3.38065E+00                                     1.859E+01
 1.00E+06 3.94136E+01 3.65373E+01 3.39130E+01 3.17157E+01 2.98151E+01
          2.64018E+01 2.35568E+01 2.11553E+01 1.90923E+01 1.72808E+01
          1.56513E+01 1.41721E+01 1.28225E+01 1.15814E+01 1.04253E+01
          9.33800E+00 8.31483E+00 7.35192E+00 6.44282E+00 5.57361E+00
          4.72274E+00 4.29986E+00 3.88468E+00 3.56288E+00 3.25851E+00
          3.18446E+00 3.12538E+00 3.11812E+00 3.11231E+00 3.11154E+00
          3.11099E+00 3.11058E+00                                     1.951E+01
 1.50E+06 4.08478E+01 3.78175E+01 3.50770E+01 3.28249E+01 3.08943E+01
          2.73938E+01 2.44967E+01 2.20427E+01 1.99337E+01 1.80790E+01
          1.64082E+01 1.48883E+01 1.34962E+01 1.22079E+01 1.09970E+01
          9.84595E+00 8.75216E+00 7.71483E+00 6.72477E+00 5.75420E+00
          4.78504E+00 4.29404E+00 3.79606E+00 3.39427E+00 3.00048E+00
          2.90177E+00 2.82259E+00 2.81310E+00 2.80521E+00 2.80418E+00
          2.80330E+00 2.80316E+00                                     2.167E+01
 2.00E+06 4.17760E+01 3.86756E+01 3.58933E+01 3.36445E+01 3.17374E+01
          2.82601E+01 2.53851E+01 2.29238E+01 2.07930E+01 1.89109E+01
          1.72133E+01 1.56672E+01 1.42483E+01 1.29306E+01 1.16849E+01
          1.04916E+01 9.34810E+00 8.25353E+00 7.19584E+00 6.13814E+00
          5.04956E+00 4.48736E+00 3.89675E+00 3.40381E+00 2.91626E+00
          2.79383E+00 2.69533E+00 2.68332E+00 2.67319E+00 2.67193E+00
          2.67100E+00 2.67142E+00                                     2.352E+01
 3.00E+06 4.27524E+01 3.96602E+01 3.69173E+01 3.47585E+01 3.29609E+01
          2.96475E+01 2.68512E+01 2.44096E+01 2.22609E+01 2.03426E+01
          1.86056E+01 1.70211E+01 1.55660E+01 1.42156E+01 1.29416E+01
          1.17209E+01 1.05401E+01 9.38065E+00 8.21583E+00 7.00218E+00
          5.69184E+00 4.98670E+00 4.23189E+00 3.57343E+00 2.87541E+00
          2.69998E+00 2.57605E+00 2.56168E+00 2.54485E+00 2.54225E+00
          2.54427E+00 2.54279E+00                                     2.644E+01
 4.00E+06 4.31225E+01 4.01228E+01 3.74896E+01 3.54662E+01 3.38056E+01
          3.06855E+01 2.79703E+01 2.55481E+01 2.33824E+01 2.14367E+01
          1.96832E+01 1.80943E+01 1.66426E+01 1.52970E+01 1.40205E+01
          1.27839E+01 1.15732E+01 1.03688E+01 9.13724E+00 7.81537E+00
          6.32938E+00 5.50100E+00 4.59783E+00 3.79715E+00 2.89769E+00
          2.65648E+00 2.51236E+00 2.49854E+00 2.47475E+00 2.47037E+00
          2.47673E+00 2.47088E+00                                     2.862E+01
 5.00E+06 4.34680E+01 4.04583E+01 3.78458E+01 3.58925E+01 3.43223E+01
          3.13379E+01 2.87128E+01 2.63552E+01 2.42341E+01 2.23169E+01
          2.05793E+01 1.89967E+01 1.75441E+01 1.61933E+01 1.49094E+01
          1.36637E+01 1.24399E+01 1.12141E+01 9.94391E+00 8.54805E+00
          6.92602E+00 5.99389E+00 4.95026E+00 4.01643E+00 2.94150E+00
          2.64571E+00 2.47125E+00 2.45499E+00 2.42673E+00 2.42167E+00
          2.43037E+00 2.42076E+00                                     3.031E+01
 6.00E+06 4.36999E+01 4.06806E+01 3.80876E+01 3.62008E+01 3.47117E+01
          3.18366E+01 2.92916E+01 2.69935E+01 2.49163E+01 2.30305E+01
          2.13141E+01 1.97448E+01 1.82997E+01 1.69523E+01 1.56695E+01
          1.44231E+01 1.31948E+01 1.19572E+01 1.06609E+01 9.20914E+00
          7.47744E+00 6.45824E+00 5.29386E+00 4.23615E+00 2.99944E+00
          2.65192E+00 2.44344E+00 2.42380E+00 2.39198E+00 2.38651E+00
          2.39687E+00 2.38414E+00                                     3.168E+01
 8.00E+06 4.39048E+01 4.08825E+01 3.83344E+01 3.65675E+01 3.52186E+01
          3.25222E+01 3.01163E+01 2.79258E+01 2.59320E+01 2.41093E+01
          2.24402E+01 2.09058E+01 1.94864E+01 1.81590E+01 1.68939E+01
          1.56637E+01 1.44473E+01 1.32104E+01 1.18900E+01 1.03588E+01
          8.44781E+00 7.28204E+00 5.91468E+00 4.64684E+00 3.15854E+00
          2.71799E+00 2.38910E+00 2.36203E+00 2.35370E+00 2.35038E+00
          2.33342E+00 2.33134E+00                                     3.378E+01
 1.00E+07 4.39996E+01 4.09784E+01 3.84650E+01 3.67850E+01 3.55370E+01
          3.29705E+01 3.06709E+01 2.85675E+01 2.66454E+01 2.48821E+01
          2.32622E+01 2.17690E+01 2.03846E+01 1.90876E+01 1.78499E+01
          1.66445E+01 1.54486E+01 1.42242E+01 1.28998E+01 1.13278E+01
          9.30275E+00 8.03167E+00 6.50374E+00 5.04739E+00 3.30903E+00
          2.78298E+00 2.37214E+00 2.33381E+00 2.31995E+00 2.31645E+00
          2.29716E+00 2.29509E+00                                     3.535E+01
 1.50E+07 4.42030E+01 4.11708E+01 3.86917E+01 3.71178E+01 3.59998E+01
          3.36167E+01 3.14734E+01 2.95116E+01 2.77186E+01 2.60751E+01
          2.45674E+01 2.31795E+01 2.18942E+01 2.06890E+01 1.95332E+01
          1.83976E+01 1.72597E+01 1.60819E+01 1.47906E+01 1.32299E+01
          1.11250E+01 9.70506E+00 7.85886E+00 5.98141E+00 3.65830E+00
          2.95552E+00 2.38924E+00 2.31660E+00 2.25864E+00 2.25391E+00
          2.25654E+00 2.24193E+00                                     3.801E+01
 2.00E+07 4.41715E+01 4.11577E+01 3.87193E+01 3.72218E+01 3.61921E+01
          3.39462E+01 3.19191E+01 3.00624E+01 2.83652E+01 2.68111E+01
          2.53874E+01 2.40800E+01 2.28727E+01 2.17440E+01 2.06630E+01
          1.96004E+01 1.85326E+01 1.74195E+01 1.61802E+01 1.46388E+01
          1.24807E+01 1.09815E+01 8.98377E+00 6.86647E+00 4.05293E+00
          3.16709E+00 2.40619E+00 2.30521E+00 2.23189E+00 2.22591E+00
          2.22599E+00 2.21368E+00                                     3.974E+01
 3.00E+07 4.40244E+01 4.10372E+01 3.86531E+01 3.72539E+01 3.63369E+01
          3.42670E+01 3.23921E+01 3.06752E+01 2.91076E+01 2.76760E+01
          2.63704E+01 2.51788E+01 2.40874E+01 2.30766E+01 2.21174E+01
          2.11811E+01 2.02439E+01 1.92623E+01 1.81450E+01 1.66842E+01
          1.45073E+01 1.29298E+01 1.07600E+01 8.33967E+00 4.81005E+00
          3.62764E+00 2.48391E+00 2.31709E+00 2.19914E+00 2.19027E+00
          2.18071E+00 2.18253E+00                                     4.196E+01
 4.00E+07 4.39949E+01 4.10127E+01 3.86482E+01 3.72921E+01 3.64268E+01
          3.44369E+01 3.26354E+01 3.09906E+01 2.94950E+01 2.81367E+01
          2.69066E+01 2.57941E+01 2.47861E+01 2.38640E+01 2.29991E+01
          2.21628E+01 2.13332E+01 2.04677E+01 1.94733E+01 1.81312E+01
          1.60365E+01 1.44595E+01 1.22161E+01 9.59288E+00 5.48289E+00
          4.03502E+00 2.58162E+00 2.35541E+00 2.18126E+00 2.16874E+00
          2.16594E+00 2.16626E+00                                     4.336E+01
 5.00E+07 4.39579E+01 4.09718E+01 3.86152E+01 3.72864E+01 3.64583E+01
          3.45429E+01 3.28140E+01 3.12305E+01 2.97826E+01 2.84603E+01
          2.72570E+01 2.61737E+01 2.52154E+01 2.43716E+01 2.36032E+01
          2.28695E+01 2.21382E+01 2.13546E+01 2.04235E+01 1.91528E+01
          1.71690E+01 1.56643E+01 1.34752E+01 1.07605E+01 6.13903E+00
          4.40561E+00 2.64561E+00 2.38452E+00 2.19047E+00 2.17468E+00
          2.15897E+00 2.15618E+00                                     4.436E+01
 6.00E+07 4.38614E+01 4.09282E+01 3.86175E+01 3.73228E+01 3.65192E+01
          3.46334E+01 3.29233E+01 3.13628E+01 2.99452E+01 2.86631E+01
          2.75110E+01 2.64835E+01 2.55743E+01 2.47706E+01 2.40463E+01
          2.33715E+01 2.27138E+01 2.20167E+01 2.11824E+01 2.00104E+01
          1.81155E+01 1.66469E+01 1.44752E+01 1.17082E+01 6.74659E+00
          4.77699E+00 2.73815E+00 2.42995E+00 2.19098E+00 2.16938E+00
          2.15065E+00 2.14907E+00                                     4.512E+01
 8.00E+07 4.37690E+01 4.08893E+01 3.86238E+01 3.73600E+01 3.65788E+01
          3.47353E+01 3.30644E+01 3.15476E+01 3.01785E+01 2.89502E+01
          2.78569E+01 2.68917E+01 2.60462E+01 2.53069E+01 2.46511E+01
          2.40559E+01 2.35021E+01 2.29456E+01 2.22907E+01 2.13093E+01
