 PENELOPE (v. 2014)  Material data file ...............
 Material: Orthoclase                                                    
 Mass density = 2.56000000E+00 g/cm**3
 Number of elements in the molecule =  4
   atomic number = 19,  atoms/molecule = 1.00000000E+00
   atomic number = 13,  atoms/molecule = 1.00000000E+00
   atomic number = 14,  atoms/molecule = 3.00000000E+00
   atomic number =  8,  atoms/molecule = 8.00000000E+00
 Mean excitation energy = 1.32200066E+02 eV
 Number of oscillators = 18 (E/P inelastic model)
   1  1.00000000E+01  0.00000000E+00  8.73922101E+00   0  30
   2  3.80000000E+01  1.35947368E+01  3.10635419E+01   0  30
   3  6.00000000E+00  1.88000000E+01  4.15034207E+01  19  30
   4  1.60000000E+01  2.84800000E+01  6.32110182E+01   8  30
   5  2.00000000E+00  3.70000000E+01  8.13421947E+01  19   5
   6  2.00000000E+00  7.70000000E+01  1.69179486E+02  13   3
   7  4.00000000E+00  7.70000000E+01  1.69209579E+02  13   4
   8  6.00000000E+00  1.04000000E+02  2.28528360E+02  14   3
   9  1.20000000E+01  1.04000000E+02  2.28595190E+02  14   4
  10  2.00000000E+00  1.21000000E+02  2.65825335E+02  13   2
  11  6.00000000E+00  1.54000000E+02  3.38343924E+02  14   2
  12  4.00000000E+00  2.96000000E+02  6.50252267E+02  19   4
  13  2.00000000E+00  2.99000000E+02  6.56834594E+02  19   3
  14  2.00000000E+00  3.81000000E+02  8.36966039E+02  19   2
  15  1.60000000E+01  5.38000000E+02  1.18188343E+03   8   1
  16  2.00000000E+00  1.56400000E+03  3.43571112E+03  13   1
  17  6.00000000E+00  1.84400000E+03  4.05080209E+03  14   1
  18  2.00000000E+00  3.61000000E+03  7.93025114E+03  19   1
 Number of shells = 18 (Compton IA model)
   1  1.00000000E+01  0.00000000E+00  1.52136570E+00   0  30
   2  3.80000000E+01  1.35947368E+01  4.57769368E-01   0  30
   3  6.00000000E+00  1.88000000E+01  3.75952333E-01  19  30
   4  1.60000000E+01  2.84800000E+01  5.77977000E-01   8  30
   5  2.00000000E+00  3.70000000E+01  5.67766000E-01  19   5
   6  4.00000000E+00  7.70000000E+01  1.67604000E-01  13   4
   7  2.00000000E+00  7.70000000E+01  1.67061000E-01  13   3
   8  1.20000000E+01  1.04000000E+02  1.49030000E-01  14   4
   9  6.00000000E+00  1.04000000E+02  1.48493000E-01  14   3
  10  2.00000000E+00  1.21000000E+02  3.03886000E-01  13   2
  11  6.00000000E+00  1.54000000E+02  2.74105000E-01  14   2
  12  4.00000000E+00  2.96000000E+02  9.64819000E-02  19   4
  13  2.00000000E+00  2.99000000E+02  9.58954000E-02  19   3
  14  2.00000000E+00  3.81000000E+02  1.84412000E-01  19   2
  15  1.60000000E+01  5.38000000E+02  1.13183000E-01   8   1
  16  2.00000000E+00  1.56400000E+03  6.83322000E-02  13   1
  17  6.00000000E+00  1.84400000E+03  6.32596000E-02  14   1
  18  2.00000000E+00  3.61000000E+03  4.60230000E-02  19   1
 *** RELAX:  Z = 19,  no. of shells =  8,  no. of transitions =   72
   1 1s1/2 2  3.61000E+03  7.10000E-01  4.60230E-02
   2 2s1/2 2  3.81000E+02  2.10000E+00  1.84412E-01
   3 2p1/2 2  2.99000E+02  1.80000E-01  9.58954E-02
   4 2p3/2 4  2.96000E+02  1.80000E-01  9.64819E-02
   5 3s1/2 2  3.70000E+01  7.00000E-01  5.67766E-01
   6 3p1/2 2  1.90000E+01  0.00000E+00  3.74525E-01
   7 3p3/2 4  1.87000E+01  0.00000E+00  3.76666E-01
  10 4s1/2 1  4.34100E+00  0.00000E+00  2.44866E+00
   1  3  0  4.18599E-02  3.31120E+03
   1  4  0  8.26518E-02  3.31395E+03
   1  6  0  3.99739E-03  3.58963E+03
   1  7  0  7.91008E-03  3.58963E+03
   1  2  2  5.89630E-02  2.84098E+03
   1  2  3  6.48009E-02  2.91049E+03
   1  2  4  1.23626E-01  2.91350E+03
   1  2  5  1.41070E-02  3.17164E+03
   1  2  6  6.89276E-03  3.18839E+03
   1  2  7  1.31233E-02  3.18867E+03
   1  2 10  6.86507E-04  3.20792E+03
   1  3  3  1.16788E-02  2.98000E+03
   1  3  4  2.89645E-01  2.98301E+03
   1  3  5  6.75386E-03  3.24115E+03
   1  3  6  2.38084E-03  3.25790E+03
   1  3  7  2.72851E-02  3.25818E+03
   1  3 10  3.25392E-04  3.27743E+03
   1  4  4  1.63935E-01  2.98602E+03
   1  4  5  1.29199E-02  3.24416E+03
   1  4  6  2.72613E-02  3.26091E+03
   1  4  7  3.12637E-02  3.26119E+03
   1  4 10  6.19017E-04  3.28044E+03
   1  5  5  8.33295E-04  3.50230E+03
   1  5  6  7.22188E-04  3.51905E+03
   1  5  7  1.37698E-03  3.51933E+03
   1  5 10  8.33295E-05  3.53858E+03
   1  6  6  1.19046E-04  3.53580E+03
   1  6  7  2.58323E-03  3.53608E+03
   1  6 10  3.57137E-05  3.55533E+03
   1  7  7  1.49204E-03  3.53636E+03
   1  7 10  6.74576E-05  3.55561E+03
   2  3  0  1.11190E-04  6.95100E+01
   2  4  0  3.14070E-04  7.25200E+01
   2  6  0  1.47230E-04  3.61810E+02
   2  7  0  2.25400E-04  3.61520E+02
   2  3 10  6.32995E-03  6.52900E+01
   2  4 10  1.22536E-02  6.83000E+01
   2  5  5  1.09421E-02  2.90160E+02
   2  5  6  1.84072E-02  3.06910E+02
   2  5  7  3.64059E-02  3.07190E+02
   2  5 10  9.71733E-04  3.26440E+02
   2  6  6  4.43715E-04  3.23660E+02
   2  6  7  1.62172E-04  3.23940E+02
   2  6 10  7.22612E-04  3.43190E+02
   2  7  7  1.00934E-03  3.24220E+02
   2  7 10  1.42836E-03  3.43470E+02
   3  5  0  8.35413E-04  2.62450E+02
   3  7  0  4.81412E-07  2.79520E+02
   3 10  0  2.03921E-05  2.97430E+02
   3  5  5  1.14174E-02  2.20650E+02
   3  5  6  2.07641E-01  2.37400E+02
   3  5  7  1.48840E-02  2.37680E+02
   3  5 10  9.88199E-04  2.56930E+02
   3  6  6  1.62162E-01  2.54150E+02
   3  6  7  5.74928E-01  2.54430E+02
   3  6 10  1.03231E-02  2.73680E+02
   3  7  7  1.61615E-02  2.54710E+02
   3  7 10  6.38519E-04  2.73960E+02
   4  5  0  7.89471E-04  2.59703E+02
   4  6  0  2.24120E-07  2.77180E+02
   4  7  0  2.20150E-07  2.76900E+02
   4 10  0  1.92520E-05  2.94420E+02
   4  5  5  1.12219E-02  2.17640E+02
   4  5  6  7.18101E-03  2.34390E+02
   4  5  7  2.13721E-01  2.34670E+02
   4  5 10  9.76484E-04  2.53920E+02
   4  6  6  2.71897E-03  2.51140E+02
   4  6  7  2.99761E-01  2.51420E+02
   4  6 10  3.00446E-04  2.70670E+02
   4  7  7  4.52595E-01  2.51700E+02
   4  7 10  1.07157E-02  2.70950E+02
   2 30 30  9.10126E-01  4.00274E+01
 *** RELAX:  Z = 13,  no. of shells =  6,  no. of transitions =   40
   1 1s1/2 2  1.56400E+03  3.70000E-01  6.83322E-02
   2 2s1/2 2  1.21000E+02  7.80000E-01  3.03886E-01
   3 2p1/2 2  7.70000E+01  4.00000E-02  1.67061E-01
   4 2p3/2 4  7.70000E+01  4.00000E-02  1.67604E-01
   5 3s1/2 2  9.07500E+00  0.00000E+00  1.23808E+00
   6 3p1/2 1  9.07500E+00  0.00000E+00  9.18119E-01
   1  3  0  1.23699E-02  1.48630E+03
   1  4  0  2.45528E-02  1.48671E+03
   1  6  0  7.55854E-05  1.55757E+03
   1  7  0  1.50039E-04  1.55757E+03
   1  2  2  7.83944E-02  1.31180E+03
   1  2  3  8.32180E-02  1.34965E+03
   1  2  4  1.62725E-01  1.35012E+03
   1  2  5  1.35884E-02  1.42069E+03
   1  2  6  8.96794E-04  1.42597E+03
   1  2  7  1.76485E-03  1.42598E+03
   1  3  3  1.42920E-02  1.38750E+03
   1  3  4  3.66942E-01  1.38797E+03
   1  3  5  6.49294E-03  1.45854E+03
   1  3  6  3.01318E-04  1.46382E+03
   1  3  7  3.65883E-03  1.46383E+03
   1  4  4  2.09226E-01  1.38844E+03
   1  4  5  1.27063E-02  1.45901E+03
   1  4  6  3.65189E-03  1.46429E+03
   1  4  7  4.20421E-03  1.46430E+03
   1  5  5  5.81139E-04  1.52958E+03
   1  5  6  7.17440E-05  1.53486E+03
   1  5  7  1.36311E-04  1.53487E+03
   2  6  0  2.07691E-06  1.22300E+02
   2  7  0  4.02982E-06  1.14180E+02
   2  5  5  1.12532E-02  9.87300E+01
   2  5  6  2.61944E-03  1.04010E+02
   2  5  7  5.21749E-03  1.04020E+02
   3  5  0  1.60531E-05  7.10400E+01
   3  7  0  1.75611E-10  7.63300E+01
   3  5  5  1.50408E-01  6.08800E+01
   3  5  6  8.00076E-01  6.61600E+01
   3  5  7  4.94996E-02  6.61700E+01
   4  5  0  1.49999E-05  7.05700E+01
   4  6  0  8.20316E-11  7.58500E+01
   4  7  0  8.10126E-11  7.58600E+01
   4  5  5  1.44757E-01  6.04100E+01
   4  5  6  2.47625E-02  6.56900E+01
   4  5  7  8.30465E-01  6.57000E+01
   2 30  0  2.49536E-04  3.81712E+01
   2 30 30  9.80654E-01  2.85014E+01
 *** RELAX:  Z = 14,  no. of shells =  6,  no. of transitions =   51
   1 1s1/2 2  1.84400E+03  4.30000E-01  6.32596E-02
   2 2s1/2 2  1.54000E+02  9.00000E-01  2.74105E-01
   3 2p1/2 2  1.04000E+02  5.00000E-02  1.48493E-01
   4 2p3/2 4  1.04000E+02  5.00000E-02  1.49030E-01
   5 3s1/2 2  1.34600E+01  0.00000E+00  1.03443E+00
   6 3p1/2 2  8.15100E+00  0.00000E+00  7.43235E-01
   1  3  0  1.59791E-02  1.73939E+03
   1  4  0  3.17052E-02  1.73998E+03
   1  6  0  2.72402E-04  1.83596E+03
   1  7  0  5.40444E-04  1.83596E+03
   1  2  2  7.47954E-02  1.52540E+03
   1  2  3  8.01214E-02  1.56828E+03
   1  2  4  1.56131E-01  1.56897E+03
   1  2  5  1.41124E-02  1.66332E+03
   1  2  6  1.95584E-03  1.67040E+03
   1  2  7  3.81585E-03  1.67043E+03
   1  3  3  1.39905E-02  1.61116E+03
   1  3  4  3.56408E-01  1.61185E+03
   1  3  5  6.76231E-03  1.70620E+03
   1  3  6  6.64732E-04  1.71328E+03
   1  3  7  7.97675E-03  1.71331E+03
   1  4  4  2.03104E-01  1.61254E+03
   1  4  5  1.31982E-02  1.70689E+03
   1  4  6  7.96407E-03  1.71397E+03
   1  4  7  9.16547E-03  1.71400E+03
   1  5  5  6.64748E-04  1.80124E+03
   1  5  6  1.66185E-04  1.80832E+03
   1  5  7  3.25975E-04  1.80835E+03
   1  6  6  6.39199E-06  1.81540E+03
   1  6  7  1.08669E-04  1.81543E+03
   1  7  7  6.39185E-05  1.81546E+03
   2  6  0  5.83271E-06  1.55240E+02
   2  7  0  1.07340E-05  1.45030E+02
   2  5  5  1.03158E-02  1.24290E+02
   2  5  6  5.00684E-03  1.31370E+02
   2  5  7  9.95440E-03  1.31400E+02
   2  6  6  3.23120E-05  1.38450E+02
   2  7  7  6.62381E-05  1.38510E+02
   3  5  0  4.72000E-05  9.50400E+01
   3  7  0  1.82830E-09  1.02150E+02
   3  5  5  6.76285E-02  8.14100E+01
   3  5  6  5.54847E-01  8.84900E+01
   3  5  7  3.51351E-02  8.85200E+01
   3  6  6  7.24466E-02  9.55700E+01
   3  6  7  2.62434E-01  9.56000E+01
   3  7  7  7.46220E-03  9.56300E+01
   4  5  0  4.42068E-05  9.43500E+01
   4  6  0  8.54246E-10  1.00630E+02
   4  7  0  8.43116E-10  1.01460E+02
   4  5  5  6.56816E-02  8.07200E+01
   4  5  6  1.73500E-02  8.78000E+01
   4  5  7  5.73636E-01  8.78300E+01
   4  6  6  1.08438E-03  9.48800E+01
   4  6  7  1.37565E-01  9.49100E+01
   4  7  7  2.04639E-01  9.49400E+01
   2 30  0  3.26940E-04  4.33570E+01
   2 30 30  9.74281E-01  3.11037E+01
 *** RELAX:  Z =  8,  no. of shells =  4,  no. of transitions =    8
   1 1s1/2 2  5.38000E+02  1.33383E-01  1.13183E-01
   2 2s1/2 2  2.84800E+01  0.00000E+00  5.77977E-01
   3 2p1/2 2  1.36200E+01  0.00000E+00  3.49407E-01
   4 2p3/2 2  1.36200E+01  0.00000E+00  3.49884E-01
   1  3  0  1.90768E-03  5.24900E+02
   1  4  0  3.80027E-03  5.24900E+02
   1  2  2  1.78644E-01  4.78820E+02
   1  2  3  1.16224E-01  4.93860E+02
   1  2  4  2.30418E-01  4.93900E+02
   1  3  3  1.10822E-02  5.08900E+02
   1  3  4  2.91115E-01  5.08940E+02
   1  4  4  1.66809E-01  5.08980E+02
 *** Electron ionisation cross sections,  IZ = 19,  NSHELL =  4,  NDATA = 364
 4.00000E+01 0.00000E+00 0.00000E+00 0.00000E+00 0.00000E+00
 4.50000E+01 0.00000E+00 0.00000E+00 0.00000E+00 0.00000E+00
 5.00000E+01 0.00000E+00 0.00000E+00 0.00000E+00 0.00000E+00
 5.50000E+01 0.00000E+00 0.00000E+00 0.00000E+00 0.00000E+00
 6.00000E+01 0.00000E+00 0.00000E+00 0.00000E+00 0.00000E+00
 7.00000E+01 0.00000E+00 0.00000E+00 0.00000E+00 0.00000E+00
 8.00000E+01 0.00000E+00 0.00000E+00 0.00000E+00 0.00000E+00
 9.00000E+01 0.00000E+00 0.00000E+00 0.00000E+00 0.00000E+00
 1.00000E+02 0.00000E+00 0.00000E+00 0.00000E+00 0.00000E+00
 1.10000E+02 0.00000E+00 0.00000E+00 0.00000E+00 0.00000E+00
 1.25000E+02 0.00000E+00 0.00000E+00 0.00000E+00 0.00000E+00
 1.40000E+02 0.00000E+00 0.00000E+00 0.00000E+00 0.00000E+00
 1.50000E+02 0.00000E+00 0.00000E+00 0.00000E+00 0.00000E+00
 1.75000E+02 0.00000E+00 0.00000E+00 0.00000E+00 0.00000E+00
 2.00000E+02 0.00000E+00 0.00000E+00 0.00000E+00 0.00000E+00
 2.20000E+02 0.00000E+00 0.00000E+00 0.00000E+00 0.00000E+00
 2.50000E+02 0.00000E+00 0.00000E+00 0.00000E+00 0.00000E+00
 2.96000E+02 0.00000E+00 0.00000E+00 0.00000E+00 0.00000E+00
 2.96000E+02 0.00000E+00 0.00000E+00 0.00000E+00 0.00000E+00
 2.99000E+02 0.00000E+00 0.00000E+00 0.00000E+00 2.28951E-20
 2.99000E+02 0.00000E+00 0.00000E+00 0.00000E+00 2.28951E-20
 3.00000E+02 0.00000E+00 0.00000E+00 3.70200E-21 3.03363E-20
 3.01990E+02 0.00000E+00 0.00000E+00 1.09341E-20 4.48703E-20
 3.03065E+02 0.00000E+00 0.00000E+00 1.47690E-20 5.25756E-20
 3.06137E+02 0.00000E+00 0.00000E+00 2.54509E-20 7.40333E-20
 3.07227E+02 0.00000E+00 0.00000E+00 2.91475E-20 8.14571E-20
 3.10341E+02 0.00000E+00 0.00000E+00 3.94459E-20 1.02134E-19
 3.11446E+02 0.00000E+00 0.00000E+00 4.30102E-20 1.09289E-19
 3.14602E+02 0.00000E+00 0.00000E+00 5.29417E-20 1.29221E-19
 3.15722E+02 0.00000E+00 0.00000E+00 5.63796E-20 1.36119E-19
 3.18922E+02 0.00000E+00 0.00000E+00 6.59600E-20 1.55338E-19
 3.20058E+02 0.00000E+00 0.00000E+00 6.92769E-20 1.61990E-19
 3.23302E+02 0.00000E+00 0.00000E+00 7.85216E-20 1.80528E-19
 3.24453E+02 0.00000E+00 0.00000E+00 8.17226E-20 1.86946E-19
 3.27741E+02 0.00000E+00 0.00000E+00 9.06458E-20 2.04833E-19
 3.28908E+02 0.00000E+00 0.00000E+00 9.37360E-20 2.11026E-19
 3.32242E+02 0.00000E+00 0.00000E+00 1.02352E-19 2.28289E-19
 3.33425E+02 0.00000E+00 0.00000E+00 1.05336E-19 2.34268E-19
 3.36804E+02 0.00000E+00 0.00000E+00 1.13656E-19 2.50936E-19
 3.38003E+02 0.00000E+00 0.00000E+00 1.16539E-19 2.56709E-19
 3.41429E+02 0.00000E+00 0.00000E+00 1.24577E-19 2.72806E-19
 3.42645E+02 0.00000E+00 0.00000E+00 1.27362E-19 2.78382E-19
 3.46117E+02 0.00000E+00 0.00000E+00 1.35130E-19 2.93934E-19
 3.47350E+02 0.00000E+00 0.00000E+00 1.37822E-19 2.99321E-19
 3.50000E+02 0.00000E+00 0.00000E+00 1.43499E-19 3.10683E-19
 3.50870E+02 0.00000E+00 0.00000E+00 1.45331E-19 3.14350E-19
 3.52120E+02 0.00000E+00 0.00000E+00 1.47933E-19 3.19557E-19
 3.55688E+02 0.00000E+00 0.00000E+00 1.55193E-19 3.34084E-19
 3.56955E+02 0.00000E+00 0.00000E+00 1.57709E-19 3.39119E-19
 3.60573E+02 0.00000E+00 0.00000E+00 1.64730E-19 3.53165E-19
 3.61857E+02 0.00000E+00 0.00000E+00 1.67164E-19 3.58034E-19
 3.65524E+02 0.00000E+00 0.00000E+00 1.73957E-19 3.71620E-19
 3.66826E+02 0.00000E+00 0.00000E+00 1.76312E-19 3.76329E-19
 3.70543E+02 0.00000E+00 0.00000E+00 1.82884E-19 3.89473E-19
 3.71863E+02 0.00000E+00 0.00000E+00 1.85163E-19 3.94030E-19
 3.75632E+02 0.00000E+00 0.00000E+00 1.91525E-19 4.06749E-19
 3.76969E+02 0.00000E+00 0.00000E+00 1.93731E-19 4.11160E-19
 3.81000E+02 0.00000E+00 0.00000E+00 2.00222E-19 4.24137E-19
 3.81000E+02 0.00000E+00 0.00000E+00 2.00222E-19 4.24137E-19
 3.82146E+02 0.00000E+00 1.63112E-21 2.02025E-19 4.27741E-19
 3.84810E+02 0.00000E+00 5.34670E-21 2.06149E-19 4.35984E-19
 3.86019E+02 0.00000E+00 6.99729E-21 2.07989E-19 4.39661E-19
 3.87393E+02 0.00000E+00 8.84843E-21 2.10057E-19 4.43795E-19
 3.90094E+02 0.00000E+00 1.24083E-20 2.14051E-19 4.51778E-19
 3.91319E+02 0.00000E+00 1.39901E-20 2.15833E-19 4.55338E-19
 3.92713E+02 0.00000E+00 1.57645E-20 2.17836E-19 4.59342E-19
 3.95451E+02 0.00000E+00 1.91779E-20 2.21705E-19 4.67074E-19
 3.96693E+02 0.00000E+00 2.06951E-20 2.23431E-19 4.70523E-19
 3.98105E+02 0.00000E+00 2.23973E-20 2.25372E-19 4.74402E-19
 4.00000E+02 0.00000E+00 2.46427E-20 2.27940E-19 4.79533E-19
 4.00881E+02 0.00000E+00 2.56727E-20 2.29121E-19 4.81892E-19
 4.02140E+02 0.00000E+00 2.71290E-20 2.30793E-19 4.85234E-19
 4.03572E+02 0.00000E+00 2.87632E-20 2.32674E-19 4.88992E-19
 4.06386E+02 0.00000E+00 3.19088E-20 2.36306E-19 4.96250E-19
 4.07662E+02 0.00000E+00 3.33078E-20 2.37927E-19 4.99488E-19
 4.09114E+02 0.00000E+00 3.48780E-20 2.39750E-19 5.03130E-19
 4.11966E+02 0.00000E+00 3.79012E-20 2.43270E-19 5.10164E-19
 4.13260E+02 0.00000E+00 3.92462E-20 2.44841E-19 5.13302E-19
 4.14732E+02 0.00000E+00 4.07560E-20 2.46608E-19 5.16832E-19
 4.17624E+02 0.00000E+00 4.36639E-20 2.50021E-19 5.23649E-19
 4.18935E+02 0.00000E+00 4.49580E-20 2.51543E-19 5.26691E-19
 4.20427E+02 0.00000E+00 4.64109E-20 2.53256E-19 5.30113E-19
 4.23358E+02 0.00000E+00 4.92101E-20 2.56565E-19 5.36722E-19
 4.24688E+02 0.00000E+00 5.04561E-20 2.58041E-19 5.39671E-19
 4.26200E+02 0.00000E+00 5.18554E-20 2.59702E-19 5.42988E-19
 4.29172E+02 0.00000E+00 5.45519E-20 2.62909E-19 5.49395E-19
 4.30520E+02 0.00000E+00 5.57526E-20 2.64341E-19 5.52255E-19
 4.32053E+02 0.00000E+00 5.71012E-20 2.65951E-19 5.55471E-19
 4.35065E+02 0.00000E+00 5.97009E-20 2.69061E-19 5.61683E-19
 4.36432E+02 0.00000E+00 6.08587E-20 2.70450E-19 5.64456E-19
 4.37986E+02 0.00000E+00 6.21595E-20 2.72011E-19 5.67574E-19
 4.41039E+02 0.00000E+00 6.46676E-20 2.75027E-19 5.73599E-19
 4.42425E+02 0.00000E+00 6.57849E-20 2.76373E-19 5.76287E-19
 4.44000E+02 0.00000E+00 6.70404E-20 2.77888E-19 5.79311E-19
 4.47096E+02 0.00000E+00 6.94619E-20 2.80813E-19 5.85101E-19
 4.48500E+02 0.00000E+00 7.05410E-20 2.82118E-19 5.87688E-19
 4.50000E+02 0.00000E+00 7.16805E-20 2.83484E-19 5.90425E-19
 4.53235E+02 0.00000E+00 7.40932E-20 2.86386E-19 5.96235E-19
 4.59459E+02 0.00000E+00 7.85700E-20 2.91803E-19 6.07068E-19
 4.65768E+02 0.00000E+00 8.29005E-20 2.97080E-19 6.17606E-19
 4.72164E+02 0.00000E+00 8.70920E-20 3.02220E-19 6.27855E-19
 4.78648E+02 0.00000E+00 9.11516E-20 3.07223E-19 6.37820E-19
 4.85220E+02 0.00000E+00 9.50857E-20 3.12090E-19 6.47508E-19
 4.91883E+02 0.00000E+00 9.89004E-20 3.16824E-19 6.56924E-19
 4.98638E+02 0.00000E+00 1.02601E-19 3.21425E-19 6.66075E-19
 5.00000E+02 0.00000E+00 1.03328E-19 3.22329E-19 6.67874E-19
 5.05485E+02 0.00000E+00 1.06193E-19 3.25894E-19 6.74966E-19
 5.12426E+02 0.00000E+00 1.09682E-19 3.30234E-19 6.83602E-19
 5.19463E+02 0.00000E+00 1.13071E-19 3.34445E-19 6.91988E-19
 5.26596E+02 0.00000E+00 1.16364E-19 3.38529E-19 7.00127E-19
 5.33827E+02 0.00000E+00 1.19566E-19 3.42490E-19 7.08023E-19
 5.41158E+02 0.00000E+00 1.22681E-19 3.46328E-19 7.15680E-19
 5.48589E+02 0.00000E+00 1.25711E-19 3.50046E-19 7.23102E-19
 5.50000E+02 0.00000E+00 1.26272E-19 3.50733E-19 7.24474E-19
 5.56122E+02 0.00000E+00 1.28659E-19 3.53646E-19 7.30291E-19
 5.63759E+02 0.00000E+00 1.31529E-19 3.57130E-19 7.37253E-19
 5.71500E+02 0.00000E+00 1.34323E-19 3.60500E-19 7.43990E-19
 5.79067E+02 0.00000E+00 1.36888E-19 3.63644E-19 7.50278E-19
 5.84936E+02 0.00000E+00 1.38817E-19 3.65985E-19 7.54962E-19
 6.00000E+02 0.00000E+00 1.43538E-19 3.71626E-19 7.66256E-19
 6.10658E+02 0.00000E+00 1.46688E-19 3.75319E-19 7.73650E-19
 6.16847E+02 0.00000E+00 1.48448E-19 3.77356E-19 7.77729E-19
 6.35557E+02 0.00000E+00 1.53474E-19 3.83066E-19 7.89155E-19
 6.43973E+02 0.00000E+00 1.55597E-19 3.85428E-19 7.93875E-19
 6.50499E+02 0.00000E+00 1.57189E-19 3.87176E-19 7.97366E-19
 6.70230E+02 0.00000E+00 1.61717E-19 3.92043E-19 8.07068E-19
 6.79104E+02 0.00000E+00 1.63624E-19 3.94040E-19 8.11036E-19
 6.85987E+02 0.00000E+00 1.65049E-19 3.95512E-19 8.13955E-19
 7.00000E+02 0.00000E+00 1.67815E-19 3.98310E-19 8.19486E-19
 7.06794E+02 0.00000E+00 1.69092E-19 3.99575E-19 8.21978E-19
 7.16153E+02 0.00000E+00 1.70787E-19 4.01224E-19 8.25216E-19
 7.23411E+02 0.00000E+00 1.72051E-19 4.02432E-19 8.27577E-19
 7.45353E+02 0.00000E+00 1.75621E-19 4.05727E-19 8.33977E-19
 7.55223E+02 0.00000E+00 1.77109E-19 4.07045E-19 8.36516E-19
 7.62877E+02 0.00000E+00 1.78216E-19 4.08002E-19 8.38351E-19
 7.86016E+02 0.00000E+00 1.81327E-19 4.10564E-19 8.43233E-19
 8.00000E+02 0.00000E+00 1.83045E-19 4.11889E-19 8.45734E-19
 8.28897E+02 0.00000E+00 1.86245E-19 4.14145E-19 8.49948E-19
 8.39873E+02 0.00000E+00 1.87346E-19 4.14844E-19 8.51242E-19
 8.48385E+02 0.00000E+00 1.88159E-19 4.15331E-19 8.52140E-19
 8.74118E+02 0.00000E+00 1.90414E-19 4.16532E-19 8.54334E-19
 8.85692E+02 0.00000E+00 1.91334E-19 4.16949E-19 8.55088E-19
 9.00000E+02 0.00000E+00 1.92398E-19 4.17369E-19 8.55841E-19
 9.21805E+02 0.00000E+00 1.93870E-19 4.17822E-19 8.56628E-19
 9.34011E+02 0.00000E+00 1.94619E-19 4.17983E-19 8.56887E-19
 9.43477E+02 0.00000E+00 1.95166E-19 4.18066E-19 8.57002E-19
 9.72094E+02 0.00000E+00 1.96641E-19 4.18106E-19 8.56908E-19
 9.84965E+02 0.00000E+00 1.97224E-19 4.18029E-19 8.56660E-19
 1.00000E+03 0.00000E+00 1.97844E-19 4.17869E-19 8.56215E-19
 1.02513E+03 0.00000E+00 1.98743E-19 4.17448E-19 8.55115E-19
 1.03870E+03 0.00000E+00 1.99162E-19 4.17147E-19 8.54350E-19
 1.04923E+03 0.00000E+00 1.99456E-19 4.16879E-19 8.53684E-19
 1.08105E+03 0.00000E+00 2.00191E-19 4.15897E-19 8.51330E-19
 1.10000E+03 0.00000E+00 2.00529E-19 4.15196E-19 8.49722E-19
 1.14003E+03 0.00000E+00 2.01025E-19 4.13456E-19 8.45921E-19
 1.15512E+03 0.00000E+00 2.01142E-19 4.12719E-19 8.44361E-19
 1.16683E+03 0.00000E+00 2.01210E-19 4.12122E-19 8.43107E-19
 1.20222E+03 0.00000E+00 2.01294E-19 4.10199E-19 8.39105E-19
 1.21814E+03 0.00000E+00 2.01278E-19 4.09284E-19 8.37208E-19
 1.23049E+03 0.00000E+00 2.01244E-19 4.08556E-19 8.35696E-19
 1.25000E+03 0.00000E+00 2.01154E-19 4.07375E-19 8.33235E-19
 1.26781E+03 0.00000E+00 2.01036E-19 4.06266E-19 8.30914E-19
 1.28460E+03 0.00000E+00 2.00895E-19 4.05195E-19 8.28662E-19
 1.29762E+03 0.00000E+00 2.00766E-19 4.04349E-19 8.26874E-19
 1.33698E+03 0.00000E+00 2.00282E-19 4.01714E-19 8.21292E-19
 1.35468E+03 0.00000E+00 2.00020E-19 4.00495E-19 8.18715E-19
 1.36841E+03 0.00000E+00 1.99799E-19 3.99537E-19 8.16697E-19
 1.40000E+03 0.00000E+00 1.99236E-19 3.97291E-19 8.12003E-19
 1.40991E+03 0.00000E+00 1.99045E-19 3.96577E-19 8.10515E-19
 1.42858E+03 0.00000E+00 1.98667E-19 3.95219E-19 8.07697E-19
 1.44306E+03 0.00000E+00 1.98360E-19 3.94157E-19 8.05494E-19
 1.48683E+03 0.00000E+00 1.97369E-19 3.90906E-19 7.98749E-19
 1.50000E+03 0.00000E+00 1.97054E-19 3.89918E-19 7.96694E-19
 1.52179E+03 0.00000E+00 1.96520E-19 3.88277E-19 7.93271E-19
 1.56795E+03 0.00000E+00 1.95329E-19 3.84776E-19 7.85950E-19
 1.58871E+03 0.00000E+00 1.94768E-19 3.83193E-19 7.82637E-19
 1.60481E+03 0.00000E+00 1.94322E-19 3.81963E-19 7.80064E-19
 1.65348E+03 0.00000E+00 1.92921E-19 3.78231E-19 7.72284E-19
 1.67538E+03 0.00000E+00 1.92269E-19 3.76549E-19 7.68791E-19
 1.69236E+03 0.00000E+00 1.91756E-19 3.75245E-19 7.66086E-19
 1.75000E+03 0.00000E+00 1.89978E-19 3.70820E-19 7.56938E-19
 1.76678E+03 0.00000E+00 1.89452E-19 3.69535E-19 7.54287E-19
 1.78469E+03 0.00000E+00 1.88886E-19 3.68167E-19 7.51464E-19
 1.83882E+03 0.00000E+00 1.87152E-19 3.64052E-19 7.42978E-19
 1.86317E+03 0.00000E+00 1.86362E-19 3.62214E-19 7.39188E-19
 1.88205E+03 0.00000E+00 1.85745E-19 3.60794E-19 7.36260E-19
 1.93913E+03 0.00000E+00 1.83864E-19 3.56534E-19 7.27482E-19
 1.96481E+03 0.00000E+00 1.83013E-19 3.54636E-19 7.23571E-19
 1.98472E+03 0.00000E+00 1.82352E-19 3.53171E-19 7.20555E-19
 2.00000E+03 0.00000E+00 1.81845E-19 3.52053E-19 7.18252E-19
 2.04492E+03 0.00000E+00 1.80354E-19 3.48788E-19 7.11534E-19
 2.07200E+03 0.00000E+00 1.79457E-19 3.46840E-19 7.07525E-19
 2.09300E+03 0.00000E+00 1.78763E-19 3.45338E-19 7.04438E-19
 2.15648E+03 0.00000E+00 1.76674E-19 3.40853E-19 6.95222E-19
 2.20000E+03 0.00000E+00 1.75249E-19 3.37827E-19 6.89008E-19
 2.27413E+03 0.00000E+00 1.72838E-19 3.32766E-19 6.78620E-19
 2.39820E+03 0.00000E+00 1.68857E-19 3.24570E-19 6.61793E-19
 2.50000E+03 0.00000E+00 1.65661E-19 3.18106E-19 6.48509E-19
 2.52903E+03 0.00000E+00 1.64763E-19 3.16305E-19 6.44808E-19
 2.66700E+03 0.00000E+00 1.60590E-19 3.07991E-19 6.27735E-19
 3.00000E+03 0.00000E+00 1.51167E-19 2.89510E-19 5.89922E-19
 3.50000E+03 0.00000E+00 1.38702E-19 2.65661E-19 5.41068E-19
 3.61000E+03 0.00000E+00 1.36219E-19 2.60962E-19 5.31442E-19
 3.61000E+03 0.00000E+00 1.36219E-19 2.60962E-19 5.31442E-19
 3.64610E+03 5.38754E-23 1.35423E-19 2.59458E-19 5.28363E-19
 3.69617E+03 1.26385E-22 1.34333E-19 2.57404E-19 5.24157E-19
 3.74692E+03 1.97375E-22 1.33245E-19 2.55356E-19 5.19964E-19
 3.79838E+03 2.66870E-22 1.32160E-19 2.53315E-19 5.15787E-19
 3.85053E+03 3.34897E-22 1.31077E-19 2.51280E-19 5.11623E-19
 3.90341E+03 4.01481E-22 1.29996E-19 2.49251E-19 5.07472E-19
 3.95701E+03 4.66645E-22 1.28918E-19 2.47229E-19 5.03335E-19
 4.00000E+03 5.17283E-22 1.28067E-19 2.45630E-19 5.00066E-19
 4.01135E+03 5.30415E-22 1.27844E-19 2.45212E-19 4.99210E-19
 4.06643E+03 5.92815E-22 1.26773E-19 2.43201E-19 4.95098E-19
 4.12227E+03 6.53868E-22 1.25705E-19 2.41195E-19 4.90998E-19
 4.17888E+03 7.13597E-22 1.24641E-19 2.39194E-19 4.86910E-19
 4.23626E+03 7.72026E-22 1.23580E-19 2.37198E-19 4.82834E-19
 4.29443E+03 8.29177E-22 1.22524E-19 2.35208E-19 4.78774E-19
 4.35340E+03 8.85072E-22 1.21472E-19 2.33226E-19 4.74732E-19
 4.41318E+03 9.39732E-22 1.20425E-19 2.31252E-19 4.70714E-19
 4.47378E+03 9.93178E-22 1.19383E-19 2.29291E-19 4.66723E-19
 4.50000E+03 1.01571E-21 1.18937E-19 2.28454E-19 4.65022E-19
 4.53522E+03 1.04543E-21 1.18345E-19 2.27343E-19 4.62763E-19
 4.59750E+03 1.09651E-21 1.17312E-19 2.25411E-19 4.58838E-19
 4.66063E+03 1.14644E-21 1.16285E-19 2.23496E-19 4.54952E-19
 4.72463E+03 1.19524E-21 1.15262E-19 2.21602E-19 4.51108E-19
 4.78950E+03 1.24292E-21 1.14244E-19 2.19729E-19 4.47311E-19
 4.85527E+03 1.28951E-21 1.13230E-19 2.17881E-19 4.43562E-19
 4.92195E+03 1.33502E-21 1.12222E-19 2.16056E-19 4.39857E-19
 4.98953E+03 1.37947E-21 1.11219E-19 2.14252E-19 4.36190E-19
 5.00000E+03 1.38621E-21 1.11065E-19 2.13976E-19 4.35629E-19
 5.05805E+03 1.42288E-21 1.10220E-19 2.12467E-19 4.32555E-19
 5.12750E+03 1.46526E-21 1.09226E-19 2.10697E-19 4.28948E-19
 5.19791E+03 1.50663E-21 1.08237E-19 2.08941E-19 4.25364E-19
 5.26929E+03 1.54701E-21 1.07253E-19 2.07195E-19 4.21797E-19
 5.34165E+03 1.58642E-21 1.06274E-19 2.05457E-19 4.18242E-19
 5.41500E+03 1.62486E-21 1.05300E-19 2.03724E-19 4.14694E-19
 5.50000E+03 1.66725E-21 1.04196E-19 2.01748E-19 4.10650E-19
 5.71041E+03 1.76476E-21 1.01572E-19 1.97007E-19 4.00956E-19
 6.00000E+03 1.88327E-21 9.82085E-20 1.90844E-19 3.88374E-19
 6.35047E+03 2.00562E-21 9.44866E-20 1.83946E-19 3.74288E-19
 6.69692E+03 2.10747E-21 9.11043E-20 1.77642E-19 3.61407E-19
 7.00000E+03 2.18355E-21 8.83383E-20 1.72481E-19 3.50877E-19
 7.06227E+03 2.19786E-21 8.77910E-20 1.71460E-19 3.48794E-19
 7.44755E+03 2.27749E-21 8.45621E-20 1.65421E-19 3.36493E-19
 7.85385E+03 2.34691E-21 8.14350E-20 1.59550E-19 3.24542E-19
 8.00000E+03 2.36869E-21 8.03717E-20 1.57555E-19 3.20479E-19
 8.28232E+03 2.40652E-21 7.83986E-20 1.53855E-19 3.12939E-19
 8.73416E+03 2.45673E-21 7.54433E-20 1.48306E-19 3.01619E-19
 9.00000E+03 2.48106E-21 7.38133E-20 1.45235E-19 2.95361E-19
 9.21065E+03 2.49793E-21 7.25754E-20 1.42900E-19 2.90605E-19
 9.71314E+03 2.53050E-21 6.98015E-20 1.37658E-19 2.79933E-19
 1.00000E+04 2.54482E-21 6.83224E-20 1.34857E-19 2.74227E-19
 1.02430E+04 2.55481E-21 6.71227E-20 1.32583E-19 2.69589E-19
 1.08018E+04 2.57144E-21 6.45296E-20 1.27663E-19 2.59554E-19
 1.10000E+04 2.57550E-21 6.36614E-20 1.26015E-19 2.56194E-19
 1.13911E+04 2.58109E-21 6.20207E-20 1.22898E-19 2.49850E-19
 1.20126E+04 2.58411E-21 5.95982E-20 1.18285E-19 2.40480E-19
 1.25000E+04 2.58219E-21 5.78401E-20 1.14928E-19 2.33666E-19
 1.26679E+04 2.58078E-21 5.72605E-20 1.13820E-19 2.31414E-19
 1.33590E+04 2.57159E-21 5.50039E-20 1.09508E-19 2.22616E-19
 1.40000E+04 2.55910E-21 5.30816E-20 1.05830E-19 2.15127E-19
 1.48564E+04 2.53786E-21 5.07366E-20 1.01330E-19 2.06014E-19
 1.50000E+04 2.53388E-21 5.03655E-20 1.00617E-19 2.04567E-19
 1.56669E+04 2.51410E-21 4.87182E-20 9.74481E-20 1.98109E-19
 1.65216E+04 2.48627E-21 4.67759E-20 9.37142E-20 1.90463E-19
 1.75000E+04 2.45213E-21 4.47571E-20 8.98455E-20 1.82528E-19
 1.83734E+04 2.42027E-21 4.31139E-20 8.66722E-20 1.76072E-19
 1.93758E+04 2.38274E-21 4.13875E-20 8.33054E-20 1.69282E-19
 2.00000E+04 2.35912E-21 4.03886E-20 8.13683E-20 1.65351E-19
 2.04328E+04 2.34272E-21 3.97272E-20 8.00925E-20 1.62749E-19
 2.15475E+04 2.30056E-21 3.81312E-20 7.70088E-20 1.56469E-19
 2.20000E+04 2.28355E-21 3.75242E-20 7.58289E-20 1.54078E-19
 2.27231E+04 2.25657E-21 3.65994E-20 7.40266E-20 1.50420E-19
 2.39627E+04 2.21104E-21 3.51317E-20 7.11616E-20 1.44586E-19
 2.50000E+04 2.17382E-21 3.40052E-20 6.89536E-20 1.40100E-19
 2.52700E+04 2.16428E-21 3.37257E-20 6.84050E-20 1.38986E-19
 3.00000E+04 2.00786E-21 2.95557E-20 6.02536E-20 1.22411E-19
 3.50000E+04 1.86524E-21 2.62672E-20 5.37877E-20 1.09263E-19
 4.00000E+04 1.74331E-21 2.37421E-20 4.87730E-20 9.90756E-20
 4.50000E+04 1.63889E-21 2.17291E-20 4.47868E-20 9.09646E-20
 5.00000E+04 1.54888E-21 2.00926E-20 4.15302E-20 8.43559E-20
 5.50000E+04 1.47044E-21 1.87338E-20 3.88144E-20 7.88310E-20
 6.00000E+04 1.40221E-21 1.75863E-20 3.65163E-20 7.41596E-20
 7.00000E+04 1.28867E-21 1.57555E-20 3.28287E-20 6.66668E-20
 8.00000E+04 1.19768E-21 1.43561E-20 3.00115E-20 6.09463E-20
 9.00000E+04 1.12289E-21 1.32506E-20 2.77849E-20 5.64190E-20
 1.00000E+05 1.06096E-21 1.23594E-20 2.59763E-20 5.27445E-20
 1.10000E+05 1.00867E-21 1.16238E-20 2.44785E-20 4.97029E-20
 1.25000E+05 9.43999E-22 1.07340E-20 2.26739E-20 4.60362E-20
 1.40000E+05 8.91883E-22 1.00298E-20 2.12364E-20 4.31161E-20
 1.50000E+05 8.62445E-22 9.63717E-21 2.04340E-20 4.14861E-20
 1.75000E+05 8.02690E-22 8.84976E-21 1.88233E-20 3.82141E-20
 2.00000E+05 7.57197E-22 8.25912E-21 1.76141E-20 3.57573E-20
 2.20000E+05 7.28119E-22 7.88441E-21 1.68468E-20 3.41983E-20
 2.50000E+05 6.93475E-22 7.43772E-21 1.59326E-20 3.23409E-20
 3.00000E+05 6.51487E-22 6.90027E-21 1.48345E-20 3.01104E-20
 3.50000E+05 6.22671E-22 6.52679E-21 1.40747E-20 2.85667E-20
 4.00000E+05 6.02111E-22 6.25639E-21 1.35278E-20 2.74553E-20
 4.50000E+05 5.87092E-22 6.05470E-21 1.31230E-20 2.66326E-20
 5.00000E+05 5.75961E-22 5.90094E-21 1.28174E-20 2.60116E-20
 5.50000E+05 5.67647E-22 5.78191E-21 1.25835E-20 2.55361E-20
 6.00000E+05 5.61430E-22 5.68859E-21 1.24028E-20 2.51688E-20
 7.00000E+05 5.53410E-22 5.55610E-21 1.21537E-20 2.46620E-20
 8.00000E+05 5.49317E-22 5.47215E-21 1.20046E-20 2.43585E-20
 9.00000E+05 5.47711E-22 5.41956E-21 1.19194E-20 2.41848E-20
 1.00000E+06 5.47740E-22 5.38776E-21 1.18766E-20 2.40974E-20
 1.10000E+06 5.48867E-22 5.37039E-21 1.18630E-20 2.40692E-20
 1.25000E+06 5.51891E-22 5.36250E-21 1.18788E-20 2.41005E-20
 1.40000E+06 5.55905E-22 5.36884E-21 1.19225E-20 2.41885E-20
 1.50000E+06 5.58911E-22 5.37829E-21 1.19616E-20 2.42674E-20
 1.75000E+06 5.67023E-22 5.41309E-21 1.20798E-20 2.45062E-20
 2.00000E+06 5.75455E-22 5.45695E-21 1.22126E-20 2.47753E-20
 2.20000E+06 5.82182E-22 5.49500E-21 1.23232E-20 2.49988E-20
 2.50000E+06 5.92031E-22 5.55387E-21 1.24891E-20 2.53348E-20
 3.00000E+06 6.07512E-22 5.65133E-21 1.27566E-20 2.58767E-20
