 PENELOPE (v. 2012)  Material data file ...............
 Material: Boron                                                         
 Mass density = 2.34000000E+00 g/cm**3
 Number of elements in the molecule =  2
   atomic number =  8,  atoms/molecule = 6.76730618E-07
   atomic number =  5,  atoms/molecule = 1.00000000E+00
 Mean excitation energy = 7.60000184E+01 eV
 Number of oscillators =  4 (E/P inelastic model)
   1  3.00000000E+00  0.00000000E+00  2.32203175E+01   0  30
   2  4.06038371E-06  1.85733333E+01  4.07979336E+01   8  30
   3  2.00000000E+00  1.92000000E+02  4.50019918E+02   5  30
   4  1.35346124E-06  5.38000000E+02  1.26024703E+03   8   1
 Number of shells =  4 (Compton IA model)
   1  3.00000000E+00  0.00000000E+00  5.72582646E-01   0  30
   2  4.06038371E-06  1.85733333E+01  4.25756000E-01   8  30
   3  2.00000000E+00  1.92000000E+02  1.85913000E-01   5  30
   4  1.35346124E-06  5.38000000E+02  1.13183000E-01   8   1
 *** RELAX:  Z =  8,  no. of shells =  4,  no. of transitions =   8
   1 1s1/2 2  5.38000E+02  1.13183E-01
   2 2s1/2 2  2.84800E+01  5.77977E-01
   3 2p1/2 2  1.36200E+01  3.49407E-01
   4 2p3/2 2  1.36200E+01  3.49884E-01
   1  3  0  1.90768E-03  5.23090E+02
   1  4  0  3.80027E-03  5.23130E+02
   1  2  2  1.78644E-01  4.78820E+02
   1  2  3  1.16224E-01  4.93860E+02
   1  2  4  2.30418E-01  4.93900E+02
   1  3  3  1.10822E-02  5.08900E+02
   1  3  4  2.91115E-01  5.08940E+02
   1  4  4  1.66809E-01  5.08980E+02
 *** RELAX:  Z =  5,  no. of shells =  3,  no. of transitions =   0
   1 1s1/2 2  1.92000E+02  1.85913E-01
   2 2s1/2 2  1.13860E+01  1.00114E+00
   3 2p1/2 1  1.13860E+01  6.14623E-01
 *** Electron scaled bremss x-section,  ZEQ = 5.00000E+00,  NDATA =  57
 1.00E+03 5.66991E+00 5.71707E+00 5.75943E+00 5.79334E+00 5.81981E+00
          5.85609E+00 5.87168E+00 5.87090E+00 5.85604E+00 5.83016E+00
          5.79725E+00 5.75819E+00 5.71333E+00 5.66332E+00 5.61004E+00
          5.55571E+00 5.50207E+00 5.45262E+00 5.41080E+00 5.37722E+00
          5.35005E+00 5.33692E+00 5.32303E+00 5.31126E+00 5.29932E+00
          5.29624E+00 5.29375E+00 5.29344E+00 5.29322E+00 5.29317E+00
          5.29314E+00 5.29315E+00                                     4.874E+00
 1.50E+03 6.34317E+00 6.38497E+00 6.42150E+00 6.44878E+00 6.46786E+00
          6.48677E+00 6.47866E+00 6.44525E+00 6.39012E+00 6.31930E+00
          6.24042E+00 6.15579E+00 6.06685E+00 5.97577E+00 5.88575E+00
          5.79989E+00 5.71879E+00 5.64256E+00 5.57149E+00 5.50646E+00
          5.44884E+00 5.42224E+00 5.39327E+00 5.36898E+00 5.35151E+00
          5.34747E+00 5.34366E+00 5.34318E+00 5.34281E+00 5.34274E+00
          5.34277E+00 5.34269E+00                                     5.196E+00
 2.00E+03 6.81430E+00 6.86370E+00 6.90321E+00 6.92535E+00 6.93256E+00
          6.91565E+00 6.86384E+00 6.78995E+00 6.69879E+00 6.59516E+00
          6.48483E+00 6.36951E+00 6.25013E+00 6.12908E+00 6.00999E+00
          5.89658E+00 5.78959E+00 5.68915E+00 5.59604E+00 5.51247E+00
          5.43786E+00 5.40176E+00 5.36658E+00 5.34050E+00 5.31790E+00
          5.31236E+00 5.30788E+00 5.30730E+00 5.30684E+00 5.30678E+00
          5.30675E+00 5.30670E+00                                     5.373E+00
 3.00E+03 7.48474E+00 7.52813E+00 7.55741E+00 7.56209E+00 7.54599E+00
          7.47226E+00 7.35541E+00 7.21589E+00 7.06096E+00 6.89690E+00
          6.73093E+00 6.56490E+00 6.39943E+00 6.23665E+00 6.07862E+00
          5.92789E+00 5.78503E+00 5.65003E+00 5.52354E+00 5.40789E+00
          5.30706E+00 5.26347E+00 5.22346E+00 5.19456E+00 5.16616E+00
          5.15940E+00 5.15409E+00 5.15337E+00 5.15283E+00 5.15277E+00
          5.15273E+00 5.15271E+00                                     5.550E+00
 4.00E+03 7.95831E+00 7.99304E+00 8.01027E+00 7.99701E+00 7.95840E+00
          7.83270E+00 7.65928E+00 7.46513E+00 7.25923E+00 7.04867E+00
          6.84128E+00 6.63853E+00 6.44034E+00 6.24815E+00 6.06269E+00
          5.88550E+00 5.71699E+00 5.55699E+00 5.40594E+00 5.26630E+00
          5.14492E+00 5.09463E+00 5.05017E+00 5.01916E+00 4.98782E+00
          4.98059E+00 4.97501E+00 4.97426E+00 4.97372E+00 4.97364E+00
          4.97358E+00 4.97358E+00                                     5.629E+00
 5.00E+03 8.32528E+00 8.35034E+00 8.35505E+00 8.32443E+00 8.26487E+00
          8.09248E+00 7.87002E+00 7.63000E+00 7.38255E+00 7.13506E+00
          6.89535E+00 6.66431E+00 6.44111E+00 6.22633E+00 6.01993E+00
          5.82262E+00 5.63458E+00 5.45531E+00 5.28506E+00 5.12627E+00
          4.98732E+00 4.93009E+00 4.88043E+00 4.84689E+00 4.81368E+00
          4.80627E+00 4.80063E+00 4.79987E+00 4.79932E+00 4.79926E+00
          4.79920E+00 4.79921E+00                                     5.668E+00
 6.00E+03 8.62424E+00 8.63924E+00 8.63151E+00 8.58438E+00 8.50540E+00
          8.29092E+00 8.02560E+00 7.74644E+00 7.46443E+00 7.18678E+00
          6.92099E+00 6.66729E+00 6.42407E+00 6.19106E+00 5.96785E+00
          5.75450E+00 5.55095E+00 5.35627E+00 5.17033E+00 4.99568E+00
          4.84117E+00 4.77684E+00 4.72141E+00 4.68489E+00 4.65031E+00
          4.64282E+00 4.63720E+00 4.63644E+00 4.63591E+00 4.63585E+00
          4.63579E+00 4.63579E+00                                     5.687E+00
 8.00E+03 9.09381E+00 9.08852E+00 9.05671E+00 8.97909E+00 8.86533E+00
          8.57791E+00 8.24078E+00 7.89818E+00 7.56166E+00 7.23753E+00
          6.93196E+00 6.64378E+00 6.36991E+00 6.10856E+00 5.85949E+00
          5.62184E+00 5.39493E+00 5.17679E+00 4.96646E+00 4.76656E+00
          4.58527E+00 4.50679E+00 4.43903E+00 4.39579E+00 4.35909E+00
          4.35153E+00 4.34596E+00 4.34524E+00 4.34472E+00 4.34467E+00
          4.34461E+00 4.34461E+00                                     5.697E+00
 1.00E+04 9.45735E+00 9.43210E+00 9.37749E+00 9.27235E+00 9.12820E+00
          8.77923E+00 8.38391E+00 7.99161E+00 7.61366E+00 7.25500E+00
          6.92019E+00 6.60643E+00 6.30979E+00 6.02714E+00 5.75878E+00
          5.50324E+00 5.25923E+00 5.02373E+00 4.79497E+00 4.57568E+00
          4.37216E+00 4.28057E+00 4.20076E+00 4.15044E+00 4.11139E+00
          4.10363E+00 4.09796E+00 4.09726E+00 4.09674E+00 4.09667E+00
          4.09663E+00 4.09661E+00                                     5.692E+00
 1.50E+04 1.01066E+01 1.00340E+01 9.92767E+00 9.76368E+00 9.55728E+00
          9.08845E+00 8.58541E+00 8.10502E+00 7.65622E+00 7.23990E+00
          6.85670E+00 6.49976E+00 6.16531E+00 5.84673E+00 5.54629E+00
          5.26092E+00 4.98828E+00 4.72358E+00 4.46364E+00 4.21099E+00
          3.96649E+00 3.84855E+00 3.74312E+00 3.67595E+00 3.62856E+00
          3.61922E+00 3.61242E+00 3.61163E+00 3.61102E+00 3.61091E+00
          3.61088E+00 3.61084E+00                                     5.659E+00
 2.00E+04 1.05546E+01 1.04384E+01 1.02865E+01 1.00739E+01 9.81849E+00
          9.26079E+00 8.68283E+00 8.14381E+00 7.64994E+00 7.19790E+00
          6.78374E+00 6.39998E+00 6.04189E+00 5.70096E+00 5.38046E+00
          5.07624E+00 4.78509E+00 4.50162E+00 4.22195E+00 3.94797E+00
          3.67555E+00 3.53857E+00 3.41354E+00 3.33187E+00 3.27430E+00
          3.26261E+00 3.25396E+00 3.25297E+00 3.25221E+00 3.25208E+00
          3.25205E+00 3.25201E+00                                     5.623E+00
 3.00E+04 1.11595E+01 1.09656E+01 1.07355E+01 1.04447E+01 1.01149E+01
          9.43099E+00 8.75405E+00 8.14081E+00 7.59183E+00 7.09770E+00
          6.64466E+00 6.22868E+00 5.84250E+00 5.47548E+00 5.13093E+00
          4.80417E+00 4.49034E+00 4.18402E+00 3.88102E+00 3.58126E+00
          3.27376E+00 3.11264E+00 2.96122E+00 2.85733E+00 2.77906E+00
          2.76212E+00 2.74925E+00 2.74775E+00 2.74661E+00 2.74641E+00
          2.74634E+00 2.74632E+00                                     5.561E+00
 4.00E+04 1.17385E+01 1.13433E+01 1.09439E+01 1.05398E+01 1.01441E+01
          9.41349E+00 8.74151E+00 8.12147E+00 7.54906E+00 7.02118E+00
          6.53043E+00 6.07892E+00 5.66705E+00 5.28351E+00 4.92641E+00
          4.58969E+00 4.26727E+00 3.95603E+00 3.64946E+00 3.33273E+00
          2.99445E+00 2.82143E+00 2.65699E+00 2.53729E+00 2.43620E+00
          2.42075E+00 2.40152E+00 2.39849E+00 2.39740E+00 2.39721E+00
          2.39731E+00 2.39710E+00                                     5.503E+00
 5.00E+04 1.19981E+01 1.15573E+01 1.11136E+01 1.06677E+01 1.02339E+01
          9.43994E+00 8.71732E+00 8.05770E+00 7.45470E+00 6.90253E+00
          6.39533E+00 5.93284E+00 5.51504E+00 5.12720E+00 4.76515E+00
          4.42471E+00 4.09708E+00 3.77883E+00 3.46329E+00 3.13586E+00
          2.78516E+00 2.60481E+00 2.43135E+00 2.30178E+00 2.18530E+00
          2.16405E+00 2.14166E+00 2.13840E+00 2.13681E+00 2.13658E+00
          2.13654E+00 2.13638E+00                                     5.456E+00
 6.00E+04 1.21908E+01 1.17114E+01 1.12304E+01 1.07499E+01 1.02850E+01
          9.44028E+00 8.67755E+00 7.98741E+00 7.36154E+00 6.79092E+00
          6.27162E+00 5.80305E+00 5.38200E+00 4.99230E+00 4.62753E+00
          4.28528E+00 3.95501E+00 3.63274E+00 3.31179E+00 2.97791E+00
          2.61996E+00 2.43522E+00 2.25597E+00 2.11935E+00 1.99018E+00
          1.96370E+00 1.93869E+00 1.93528E+00 1.93323E+00 1.93296E+00
          1.93280E+00 1.93267E+00                                     5.416E+00
 8.00E+04 1.24553E+01 1.19062E+01 1.13601E+01 1.08224E+01 1.03085E+01
          9.38696E+00 8.56835E+00 7.83886E+00 7.18662E+00 6.59760E+00
          6.06655E+00 5.59591E+00 5.17359E+00 4.78203E+00 4.41031E+00
          4.05800E+00 3.71670E+00 3.38391E+00 3.05632E+00 2.72199E+00
          2.36924E+00 2.18504E+00 1.99734E+00 1.84629E+00 1.70056E+00
          1.66477E+00 1.63609E+00 1.63264E+00 1.62973E+00 1.62937E+00
          1.62907E+00 1.62899E+00                                     5.350E+00
 1.00E+05 1.26916E+01 1.20662E+01 1.14512E+01 1.08574E+01 1.02989E+01
          9.31176E+00 8.45235E+00 7.69815E+00 7.03112E+00 6.43451E+00
          5.89731E+00 5.42302E+00 4.99646E+00 4.60023E+00 4.22350E+00
          3.86705E+00 3.52575E+00 3.19354E+00 2.86688E+00 2.53388E+00
          2.18232E+00 1.99765E+00 1.80694E+00 1.64961E+00 1.49052E+00
          1.45046E+00 1.41840E+00 1.41451E+00 1.41121E+00 1.41082E+00
          1.41046E+00 1.41037E+00                                     5.302E+00
 1.50E+05 1.31338E+01 1.23472E+01 1.15908E+01 1.08898E+01 1.02499E+01
          9.14272E+00 8.21180E+00 7.41553E+00 6.72138E+00 6.11115E+00
          5.57123E+00 5.09153E+00 4.65807E+00 4.25459E+00 3.87073E+00
          3.50627E+00 3.16638E+00 2.84012E+00 2.52190E+00 2.19989E+00
          1.86061E+00 1.68009E+00 1.48797E+00 1.32291E+00 1.14739E+00
          1.10161E+00 1.06483E+00 1.06034E+00 1.05655E+00 1.05610E+00
          1.05567E+00 1.05560E+00                                     5.234E+00
 2.00E+05 1.34902E+01 1.25670E+01 1.16946E+01 1.09127E+01 1.02163E+01
          9.02420E+00 8.03890E+00 7.21152E+00 6.50214E+00 5.88305E+00
          5.34095E+00 4.85894E+00 4.42052E+00 4.01222E+00 3.62434E+00
          3.25554E+00 2.91398E+00 2.59455E+00 2.28584E+00 1.97624E+00
          1.65131E+00 1.47692E+00 1.28731E+00 1.12067E+00 9.39904E-01
          8.91877E-01 8.53170E-01 8.48440E-01 8.44471E-01 8.43991E-01
          8.43539E-01 8.43503E-01                                     5.218E+00
 3.00E+05 1.41344E+01 1.29594E+01 1.18848E+01 1.09836E+01 1.02213E+01
          8.93715E+00 7.89106E+00 7.01224E+00 6.27315E+00 5.63638E+00
          5.07962E+00 4.58620E+00 4.13639E+00 3.71822E+00 3.32599E+00
          2.95769E+00 2.61578E+00 2.30229E+00 2.00171E+00 1.70490E+00
          1.40040E+00 1.23675E+00 1.05660E+00 8.94835E-01 7.11376E-01
          6.61783E-01 6.21861E-01 6.16631E-01 6.12781E-01 6.12301E-01
          6.11922E-01 6.11792E-01                                     5.297E+00
 4.00E+05 1.47273E+01 1.33556E+01 1.21255E+01 1.11380E+01 1.03285E+01
          8.96268E+00 7.86699E+00 6.94936E+00 6.18820E+00 5.54091E+00
          4.97144E+00 4.46311E+00 4.00267E+00 3.57931E+00 3.18425E+00
          2.81264E+00 2.46518E+00 2.14539E+00 1.84927E+00 1.55729E+00
          1.26257E+00 1.10832E+00 9.35358E-01 7.76015E-01 5.91772E-01
          5.42291E-01 5.01800E-01 4.96460E-01 4.92490E-01 4.91960E-01
          4.91590E-01 4.91460E-01                                     5.458E+00
 5.00E+05 1.52692E+01 1.37364E+01 1.23825E+01 1.13313E+01 1.04892E+01
          9.05459E+00 7.91843E+00 6.97152E+00 6.18827E+00 5.52640E+00
          4.94501E+00 4.42445E+00 3.95334E+00 3.52193E+00 3.12087E+00
          2.74439E+00 2.39163E+00 2.06433E+00 1.76496E+00 1.47515E+00
          1.18506E+00 1.03456E+00 8.64532E-01 7.06178E-01 5.20793E-01
          4.70842E-01 4.29851E-01 4.24441E-01 4.20401E-01 4.19861E-01
          4.19490E-01 4.19333E-01                                     5.660E+00
 6.00E+05 1.57159E+01 1.41129E+01 1.27008E+01 1.16102E+01 1.07308E+01
          9.18888E+00 7.97269E+00 6.99358E+00 6.20308E+00 5.54423E+00
          4.96468E+00 4.44149E+00 3.96351E+00 3.52245E+00 3.11082E+00
          2.72395E+00 2.36109E+00 2.02383E+00 1.71725E+00 1.43208E+00
          1.14472E+00 9.91784E-01 8.21304E-01 6.63876E-01 4.76266E-01
          4.24823E-01 3.83321E-01 3.78101E-01 3.73810E-01 3.73300E-01
          3.72810E-01 3.72699E-01                                     5.882E+00
 8.00E+05 1.65516E+01 1.47411E+01 1.31718E+01 1.20061E+01 1.10900E+01
          9.45233E+00 8.17464E+00 7.16905E+00 6.35807E+00 5.67784E+00
          5.07695E+00 4.53392E+00 4.03811E+00 3.58144E+00 3.15661E+00
          2.75826E+00 2.38368E+00 2.03155E+00 1.70471E+00 1.40830E+00
          1.11684E+00 9.61526E-01 7.87047E-01 6.24337E-01 4.28348E-01
          3.74359E-01 3.30629E-01 3.25089E-01 3.20569E-01 3.20029E-01
          3.19529E-01 3.19409E-01                                     6.333E+00
 1.00E+06 1.72342E+01 1.52662E+01 1.35779E+01 1.23559E+01 1.14144E+01
          9.71369E+00 8.39985E+00 7.37534E+00 6.54958E+00 5.85285E+00
          5.23481E+00 4.67582E+00 4.16583E+00 3.69639E+00 3.25986E+00
          2.85022E+00 2.46351E+00 2.09629E+00 1.74941E+00 1.43204E+00
          1.13099E+00 9.70139E-01 7.88149E-01 6.16949E-01 4.08760E-01
          3.51210E-01 3.04480E-01 2.98520E-01 2.93720E-01 2.93130E-01
          2.92600E-01 2.92510E-01                                     6.775E+00
 1.50E+06 1.85277E+01 1.62273E+01 1.42941E+01 1.29718E+01 1.20091E+01
          1.02804E+01 8.99676E+00 7.95433E+00 7.08439E+00 6.33289E+00
          5.66622E+00 5.06800E+00 4.52777E+00 4.03511E+00 3.57849E+00
          3.14860E+00 2.73879E+00 2.34138E+00 1.95241E+00 1.57651E+00
          1.22931E+00 1.05327E+00 8.46244E-01 6.45258E-01 4.01083E-01
          3.34264E-01 2.79055E-01 2.71785E-01 2.66415E-01 2.65695E-01
          2.65185E-01 2.65045E-01                                     7.768E+00
 2.00E+06 1.93378E+01 1.68931E+01 1.48562E+01 1.34971E+01 1.25305E+01
          1.07837E+01 9.50397E+00 8.44234E+00 7.54558E+00 6.76669E+00
          6.07734E+00 5.45933E+00 4.89920E+00 4.38545E+00 3.90815E+00
          3.45819E+00 3.02698E+00 2.60368E+00 2.18256E+00 1.76917E+00
          1.36793E+00 1.16340E+00 9.24054E-01 6.93481E-01 4.14007E-01
          3.37265E-01 2.72734E-01 2.64054E-01 2.57894E-01 2.57234E-01
          2.56504E-01 2.56284E-01                                     8.612E+00
 3.00E+06 2.02864E+01 1.77362E+01 1.56333E+01 1.42720E+01 1.33331E+01
          1.16054E+01 1.02992E+01 9.21496E+00 8.30017E+00 7.50299E+00
          6.78939E+00 6.14231E+00 5.55112E+00 5.00570E+00 4.49581E+00
          4.01252E+00 3.54881E+00 3.09583E+00 2.64251E+00 2.17335E+00
          1.66784E+00 1.39248E+00 1.08658E+00 7.97281E-01 4.56544E-01
          3.60047E-01 2.74970E-01 2.62761E-01 2.52991E-01 2.51922E-01
          2.51174E-01 2.50266E-01                                     9.957E+00
 4.00E+06 2.09049E+01 1.82399E+01 1.60712E+01 1.47243E+01 1.38418E+01
          1.21991E+01 1.09153E+01 9.83293E+00 8.90634E+00 8.09058E+00
          7.35597E+00 6.68731E+00 6.07498E+00 5.50974E+00 4.98202E+00
          4.48281E+00 4.00342E+00 3.53214E+00 3.05260E+00 2.53876E+00
          1.95455E+00 1.62005E+00 1.24735E+00 9.05425E-01 5.02566E-01
          3.87228E-01 2.84060E-01 2.67369E-01 2.51188E-01 2.49324E-01
          2.49820E-01 2.47516E-01                                     1.098E+01
 5.00E+06 2.11456E+01 1.84670E+01 1.63190E+01 1.50467E+01 1.42545E+01
          1.27114E+01 1.14487E+01 1.03504E+01 9.38981E+00 8.53860E+00
          7.78052E+00 7.10058E+00 6.48567E+00 5.92236E+00 5.39576E+00
          4.89319E+00 4.40565E+00 3.92079E+00 3.41843E+00 2.86162E+00
          2.20429E+00 1.82176E+00 1.39394E+00 1.01628E+00 5.53919E-01
          4.15514E-01 2.93949E-01 2.73000E-01 2.50231E-01 2.47328E-01
          2.48923E-01 2.45413E-01                                     1.179E+01
 6.00E+06 2.14527E+01 1.86912E+01 1.65043E+01 1.52639E+01 1.45299E+01
          1.30410E+01 1.18077E+01 1.07256E+01 9.77321E+00 8.92416E+00
          8.16389E+00 7.47872E+00 6.85660E+00 6.28517E+00 5.75059E+00
          5.24052E+00 4.74524E+00 4.25087E+00 3.73409E+00 3.15095E+00
          2.44432E+00 2.02276E+00 1.54135E+00 1.11561E+00 6.01990E-01
          4.46614E-01 3.04811E-01 2.78836E-01 2.49682E-01 2.45913E-01
          2.47600E-01 2.43937E-01                                     1.245E+01
 8.00E+06 2.18371E+01 1.89556E+01 1.67207E+01 1.55462E+01 1.49147E+01
          1.35083E+01 1.23287E+01 1.12804E+01 1.03492E+01 9.51203E+00
          8.75688E+00 8.07184E+00 7.44645E+00 6.86968E+00 6.32909E+00
          5.81282E+00 5.31023E+00 4.80532E+00 4.27012E+00 3.65005E+00
          2.86985E+00 2.38778E+00 1.81904E+00 1.30124E+00 6.95058E-01
          5.07361E-01 3.25951E-01 2.90373E-01 2.49257E-01 2.43648E-01
          2.45493E-01 2.41862E-01                                     1.347E+01
 1.00E+07 2.20788E+01 1.91205E+01 1.68588E+01 1.57367E+01 1.51818E+01
          1.38385E+01 1.27031E+01 1.16856E+01 1.07760E+01 9.95355E+00
          9.20831E+00 8.52952E+00 7.90773E+00 7.33274E+00 6.79283E+00
          6.27644E+00 5.77231E+00 5.26312E+00 4.71769E+00 4.07378E+00
          3.24182E+00 2.71493E+00 2.07842E+00 1.47742E+00 7.83883E-01
          5.65519E-01 3.46164E-01 3.01741E-01 2.49850E-01 2.42522E-01
          2.44102E-01 2.40378E-01                                     1.425E+01
 1.50E+07 2.23821E+01 1.93366E+01 1.70519E+01 1.60088E+01 1.55667E+01
          1.43410E+01 1.32873E+01 1.23330E+01 1.14720E+01 1.06878E+01
          9.97296E+00 9.31884E+00 8.71741E+00 8.15949E+00 7.63398E+00
          7.12930E+00 6.63364E+00 6.12784E+00 5.57633E+00 4.90557E+00
          4.00081E+00 3.40313E+00 2.64980E+00 1.89691E+00 9.84713E-01
          6.96403E-01 3.91181E-01 3.27838E-01 2.53472E-01 2.42093E-01
          2.40864E-01 2.37964E-01                                     1.560E+01
 2.00E+07 2.25074E+01 1.94229E+01 1.71320E+01 1.61348E+01 1.57574E+01
          1.46115E+01 1.36151E+01 1.27086E+01 1.18871E+01 1.11372E+01
          1.04522E+01 9.82485E+00 9.24764E+00 8.71184E+00 8.20630E+00
          7.71925E+00 7.23876E+00 6.74513E+00 6.20083E+00 5.52678E+00
          4.59234E+00 3.95706E+00 3.13194E+00 2.27113E+00 1.16105E+00
          8.10926E-01 4.30102E-01 3.50990E-01 2.58312E-01 2.43361E-01
          2.38494E-01 2.36428E-01                                     1.648E+01
 3.00E+07 2.26428E+01 1.95047E+01 1.72021E+01 1.62597E+01 1.59614E+01
          1.49118E+01 1.39887E+01 1.31468E+01 1.23824E+01 1.16846E+01
          1.10480E+01 1.04659E+01 9.93182E+00 9.43697E+00 8.96967E+00
          8.51784E+00 8.07000E+00 7.60653E+00 7.08885E+00 6.43320E+00
          5.49050E+00 4.82329E+00 3.91860E+00 2.91475E+00 1.46728E+00
          1.01078E+00 4.97981E-01 3.92444E-01 2.69657E-01 2.48485E-01
          2.36038E-01 2.34939E-01                                     1.763E+01
 4.00E+07 2.26737E+01 1.95168E+01 1.72160E+01 1.63084E+01 1.60560E+01
          1.50640E+01 1.41865E+01 1.33871E+01 1.26617E+01 1.20012E+01
          1.14005E+01 1.08536E+01 1.03540E+01 9.89306E+00 9.45854E+00
          9.03812E+00 8.62098E+00 8.18812E+00 7.70132E+00 7.07571E+00
          6.15241E+00 5.47942E+00 4.53790E+00 3.44657E+00 1.74863E+00
          1.18355E+00 5.56838E-01 4.29066E-01 2.81248E-01 2.54674E-01
          2.34889E-01 2.34263E-01                                     1.836E+01
 5.00E+07 2.26504E+01 1.95069E+01 1.72262E+01 1.63488E+01 1.61281E+01
          1.51782E+01 1.43318E+01 1.35587E+01 1.28557E+01 1.22160E+01
          1.16359E+01 1.11104E+01 1.06340E+01 1.01994E+01 9.79609E+00
          9.41191E+00 9.03300E+00 8.63341E+00 8.17122E+00 7.57105E+00
          6.67703E+00 6.01030E+00 5.04985E+00 3.89701E+00 2.01230E+00
          1.34002E+00 6.10437E-01 4.62665E-01 2.92724E-01 2.61346E-01
          2.34637E-01 2.33508E-01                                     1.889E+01
 6.00E+07 2.26094E+01 1.94874E+01 1.72274E+01 1.63694E+01 1.61658E+01
          1.52432E+01 1.44200E+01 1.36694E+01 1.29883E+01 1.23701E+01
          1.18110E+01 1.13064E+01 1.08513E+01 1.04386E+01 1.00581E+01
          9.69775E+00 9.34400E+00 8.97070E+00 8.53548E+00 7.96224E+00
          7.09346E+00 6.43760E+00 5.48167E+00 4.30266E+00 2.26045E+00
          1.47989E+00 6.60055E-01 4.95786E-01 3.03941E-01 2.66854E-01
          2.35108E-01 2.33368E-01                                     1.929E+01
 8.00E+07 2.25122E+01 1.94474E+01 1.72343E+01 1.64062E+01 1.62227E+01
          1.53379E+01 1.45463E+01 1.38264E+01 1.31752E+01 1.25869E+01
          1.20580E+01 1.15843E+01 1.11610E+01 1.07815E+01 1.04356E+01
          1.01114E+01 9.79627E+00 9.46454E+00 9.07569E+00 8.55783E+00
          7.75362E+00 7.12705E+00 6.18201E+00 4.96258E+00 2.70273E+00
          1.76345E+00 7.50688E-01 5.52252E-01 3.24522E-01 2.80463E-01
          2.36237E-01 2.32574E-01                                     1.988E+01
 1.00E+08 2.24407E+01 1.94253E+01 1.72495E+01 1.64393E+01 1.62640E+01
          1.53987E+01 1.46239E+01 1.39216E+01 1.32884E+01 1.27192E+01
          1.22106E+01 1.17584E+01 1.13579E+01 1.10020E+01 1.06797E+01
          1.03804E+01 1.00956E+01 9.80907E+00 9.48281E+00 9.02221E+00
          8.24889E+00 7.63533E+00 6.71567E+00 5.50135E+00 3.09318E+00
          2.02683E+00 8.32833E-01 6.05703E-01 3.43819E-01 2.91705E-01
          2.38422E-01 2.32747E-01                                     2.029E+01
 1.50E+08 2.22628E+01 1.93624E+01 1.72718E+01 1.64973E+01 1.63335E+01
          1.55032E+01 1.47568E+01 1.40815E+01 1.34746E+01 1.29321E+01
          1.24511E+01 1.20285E+01 1.16604E+01 1.13410E+01 1.10607E+01
          1.08102E+01 1.05832E+01 1.03656E+01 1.01224E+01 9.75949E+00
          9.09941E+00 8.54887E+00 7.69152E+00 6.49818E+00 3.90192E+00
          2.62007E+00 1.01673E+00 7.23450E-01 3.87157E-01 3.19377E-01
          2.44419E-01 2.32030E-01                                     2.096E+01
 2.00E+08 2.19700E+01 1.92440E+01 1.72762E+01 1.65409E+01 1.63762E+01
          1.55691E+01 1.48374E+01 1.41744E+01 1.35786E+01 1.30476E+01
          1.25799E+01 1.21728E+01 1.18232E+01 1.15267E+01 1.12767E+01
          1.10654E+01 1.08829E+01 1.07059E+01 1.04977E+01 1.01949E+01
          9.64730E+00 9.16339E+00 8.36036E+00 7.20036E+00 4.55181E+00
          3.11785E+00 1.17868E+00 8.28862E-01 4.25484E-01 3.44000E-01
          2.50865E-01 2.32009E-01                                     2.136E+01
 3.00E+08 2.13082E+01 1.89866E+01 1.72928E+01 1.66198E+01 1.64203E+01
          1.56329E+01 1.49171E+01 1.42699E+01 1.36895E+01 1.31744E+01
          1.27238E+01 1.23358E+01 1.20073E+01 1.17349E+01 1.15145E+01
          1.13406E+01 1.12059E+01 1.10902E+01 1.09609E+01 1.07600E+01
          1.03439E+01 9.94224E+00 9.24355E+00 8.18475E+00 5.52987E+00
          3.92259E+00 1.46753E+00 1.01729E+00 4.92877E-01 3.87184E-01
          2.64599E-01 2.31870E-01                                     2.183E+01
 4.00E+08 2.07345E+01 1.87549E+01 1.72910E+01 1.66663E+01 1.64328E+01
          1.56562E+01 1.49502E+01 1.43124E+01 1.37411E+01 1.32349E+01
          1.27937E+01 1.24158E+01 1.20998E+01 1.18429E+01 1.16406E+01
          1.14881E+01 1.13799E+01 1.12995E+01 1.12190E+01 1.10870E+01
          1.07717E+01 1.04374E+01 9.81636E+00 8.82941E+00 6.24150E+00
          4.57508E+00 1.72034E+00 1.18120E+00 5.51664E-01 4.25640E-01
          2.77250E-01 2.31712E-01                                     2.209E+01
 5.00E+08 2.03164E+01 1.85839E+01 1.72861E+01 1.66956E+01 1.64363E+01
          1.56665E+01 1.49670E+01 1.43355E+01 1.37705E+01 1.32705E+01
          1.28354E+01 1.24645E+01 1.21562E+01 1.19086E+01 1.17175E+01
          1.15788E+01 1.14884E+01 1.14322E+01 1.13859E+01 1.13029E+01
          1.10609E+01 1.07783E+01 1.02248E+01 9.31026E+00 6.80142E+00
          5.10201E+00 1.94818E+00 1.33225E+00 6.05152E-01 4.60016E-01
          2.89457E-01 2.31908E-01                                     2.226E+01
 6.00E+08 2.00333E+01 1.84706E+01 1.72867E+01 1.67195E+01 1.64425E+01
          1.56771E+01 1.49820E+01 1.43546E+01 1.37936E+01 1.32981E+01
          1.28681E+01 1.25025E+01 1.21992E+01 1.19565E+01 1.17719E+01
          1.16430E+01 1.15663E+01 1.15284E+01 1.15070E+01 1.14607E+01
          1.12739E+01 1.10300E+01 1.05341E+01 9.69371E+00 7.26987E+00
          5.53361E+00 2.18176E+00 1.47555E+00 6.55321E-01 4.90877E-01
          3.01510E-01 2.31931E-01                                     2.239E+01
 8.00E+08 1.96715E+01 1.83263E+01 1.72887E+01 1.67518E+01 1.64526E+01
          1.56930E+01 1.50030E+01 1.43805E+01 1.38244E+01 1.33340E+01
          1.29098E+01 1.25504E+01 1.22541E+01 1.20194E+01 1.18449E+01
          1.17286E+01 1.16684E+01 1.16527E+01 1.16631E+01 1.16670E+01
          1.15665E+01 1.13890E+01 1.09832E+01 1.02433E+01 7.97496E+00
          6.25514E+00 2.65029E+00 1.73081E+00 7.46667E-01 5.49210E-01
          3.23647E-01 2.30008E-01                                     2.257E+01
 1.00E+09 1.94419E+01 1.82352E+01 1.72907E+01 1.67733E+01 1.64599E+01
          1.57040E+01 1.50168E+01 1.43971E+01 1.38439E+01 1.33567E+01
          1.29360E+01 1.25803E+01 1.22882E+01 1.20588E+01 1.18904E+01
          1.17821E+01 1.17323E+01 1.17304E+01 1.17608E+01 1.17975E+01
          1.17573E+01 1.16290E+01 1.12928E+01 1.06330E+01 8.50152E+00
          6.82124E+00 3.05517E+00 1.95924E+00 8.29952E-01 6.02439E-01
          3.42603E-01 2.31495E-01                                     2.269E+01
 1.50E+09 1.90844E+01 1.80898E+01 1.72878E+01 1.68004E+01 1.64655E+01
          1.57145E+01 1.50313E+01 1.44153E+01 1.38661E+01 1.33831E+01
          1.29664E+01 1.26156E+01 1.23300E+01 1.21091E+01 1.19506E+01
          1.18528E+01 1.18161E+01 1.18333E+01 1.18932E+01 1.19770E+01
          1.20244E+01 1.19754E+01 1.17664E+01 1.12598E+01 9.38587E+00
          7.83077E+00 3.89687E+00 2.50140E+00 1.01467E+00 7.20904E-01
          3.87932E-01 2.31441E-01                                     2.286E+01
 2.00E+09 1.89160E+01 1.80293E+01 1.72977E+01 1.68198E+01 1.64678E+01
          1.57146E+01 1.50330E+01 1.44203E+01 1.38755E+01 1.33971E+01
          1.29848E+01 1.26380E+01 1.23562E+01 1.21381E+01 1.19799E+01
          1.18801E+01 1.18448E+01 1.18793E+01 1.19800E+01 1.21065E+01
          1.21833E+01 1.21599E+01 1.20146E+01 1.16264E+01 9.99944E+00
          8.50627E+00 4.54733E+00 3.03974E+00 1.17917E+00 8.26014E-01
          4.25306E-01 2.30476E-01                                     2.296E+01
 3.00E+09 1.87039E+01 1.79440E+01 1.72975E+01 1.68370E+01 1.64715E+01
          1.57209E+01 1.50416E+01 1.44312E+01 1.38886E+01 1.34127E+01
          1.30027E+01 1.26588E+01 1.23803E+01 1.21662E+01 1.20127E+01
          1.19191E+01 1.18920E+01 1.19379E+01 1.20552E+01 1.22074E+01
          1.23333E+01 1.23590E+01 1.23063E+01 1.20588E+01 1.07409E+01
          9.41745E+00 5.53943E+00 3.89152E+00 1.46743E+00 1.01195E+00
          4.90746E-01 2.28527E-01                                     2.307E+01
 4.00E+09 1.85909E+01 1.78979E+01 1.72963E+01 1.68448E+01 1.64723E+01
          1.57231E+01 1.50449E+01 1.44357E+01 1.38943E+01 1.34197E+01
          1.30112E+01 1.26687E+01 1.23920E+01 1.21799E+01 1.20291E+01
          1.19388E+01 1.19160E+01 1.19679E+01 1.20938E+01 1.22590E+01
          1.24103E+01 1.24624E+01 1.24620E+01 1.23002E+01 1.11996E+01
          1.00122E+01 6.27570E+00 4.56373E+00 1.71981E+00 1.17789E+00
          5.51771E-01 2.36334E-01                                     2.313E+01
 5.00E+09 1.84955E+01 1.78535E+01 1.72877E+01 1.68477E+01 1.64745E+01
          1.57307E+01 1.50541E+01 1.44449E+01 1.39025E+01 1.34269E+01
          1.30181E+01 1.26757E+01 1.23990E+01 1.21877E+01 1.20417E+01
          1.19616E+01 1.19489E+01 1.19982E+01 1.21032E+01 1.22595E+01
          1.24514E+01 1.25407E+01 1.25747E+01 1.24406E+01 1.14955E+01
          1.04875E+01 6.84513E+00 5.07737E+00 1.97830E+00 1.33745E+00
          6.05519E-01 2.30488E-01                                     2.317E+01
 6.00E+09 1.84478E+01 1.78351E+01 1.72891E+01 1.68529E+01 1.64765E+01
          1.57329E+01 1.50570E+01 1.44482E+01 1.39064E+01 1.34311E+01
          1.30229E+01 1.26812E+01 1.24053E+01 1.21948E+01 1.20498E+01
          1.19710E+01 1.19600E+01 1.20117E+01 1.21204E+01 1.22831E+01
          1.24865E+01 1.25863E+01 1.26416E+01 1.25477E+01 1.17310E+01
          1.08100E+01 7.31002E+00 5.53310E+00 2.30229E+00 1.47976E+00
          6.56371E-01 2.26604E-01                                     2.320E+01
 8.00E+09 1.83773E+01 1.78037E+01 1.72838E+01 1.68532E+01 1.64729E+01
          1.57303E+01 1.50548E+01 1.44466E+01 1.39053E+01 1.34308E+01
          1.30233E+01 1.26825E+01 1.24077E+01 1.21985E+01 1.20547E+01
          1.19775E+01 1.19687E+01 1.20234E+01 1.21369E+01 1.23075E+01
          1.25253E+01 1.26385E+01 1.27209E+01 1.26819E+01 1.20528E+01
          1.12647E+01 8.02428E+00 6.26485E+00 2.84459E+00 1.82911E+00
          7.45997E-01 2.30439E-01                                     2.323E+01
 1.00E+10 1.83423E+01 1.77928E+01 1.72893E+01 1.68623E+01 1.64797E+01
          1.57373E+01 1.50617E+01 1.44531E+01 1.39110E+01 1.34358E+01
          1.30280E+01 1.26873E+01 1.24136E+01 1.22062E+01 1.20641E+01
