 PENELOPE (v. 2012)  Material data file ...............
 Material: K530                                                          
 Mass density = 1.26000000E+00 g/cm**3
 Number of elements in the molecule =  6
   atomic number = 14,  atoms/molecule = 2.83766236E-01
   atomic number = 13,  atoms/molecule = 7.00335657E-02
   atomic number = 12,  atoms/molecule = 1.75617202E-01
   atomic number = 20,  atoms/molecule = 9.87359734E-02
   atomic number = 26,  atoms/molecule = 5.31426085E-02
   atomic number =  8,  atoms/molecule = 1.00000000E+00
 Mean excitation energy = 1.37896692E+02 eV
 Number of oscillators = 27 (E/P inelastic model)
   1  1.43262474E+00  0.00000000E+00  6.36032259E+00   0  30
   2  4.88638812E+00  1.33031687E+01  3.13122075E+01   0  30
   3  2.78988779E+00  2.96181637E+01  6.85407963E+01   0  30
   4  3.51234404E-01  5.40000000E+01  1.25696363E+02  12   3
   5  7.02468809E-01  5.40000000E+01  1.25722661E+02  12   4
   6  2.12570434E-01  5.90000000E+01  1.37320746E+02  26   7
   7  1.06285217E-01  6.10000000E+01  1.41967668E+02  26   6
   8  1.40067131E-01  7.70000000E+01  1.79203551E+02  13   3
   9  2.80134263E-01  7.70000000E+01  1.79210908E+02  13   4
  10  3.51234404E-01  9.20000000E+01  2.14119984E+02  12   2
  11  1.06285217E-01  9.80000000E+01  2.28072270E+02  26   5
  12  5.67532472E-01  1.04000000E+02  2.42053294E+02  14   3
  13  1.13506494E+00  1.04000000E+02  2.42075362E+02  14   4
  14  1.40067131E-01  1.21000000E+02  2.81598702E+02  13   2
  15  5.67532472E-01  1.54000000E+02  3.58407294E+02  14   2
  16  3.94943894E-01  3.49000000E+02  8.12205510E+02  20   4
  17  1.97471947E-01  3.53000000E+02  8.21512089E+02  20   3
  18  1.97471947E-01  4.41000000E+02  1.02630729E+03  20   2
  19  2.00000000E+00  5.38000000E+02  1.25206117E+03   8   1
  20  2.12570434E-01  7.13000000E+02  1.65931142E+03  26   4
  21  1.06285217E-01  7.26000000E+02  1.68956471E+03  26   3
  22  1.06285217E-01  8.51000000E+02  1.98046754E+03  26   2
  23  3.51234404E-01  1.30800000E+03  3.04400917E+03  12   1
  24  1.40067131E-01  1.56400000E+03  3.63977761E+03  13   1
  25  5.67532472E-01  1.84400000E+03  4.29140102E+03  14   1
  26  1.97471947E-01  4.04100000E+03  9.40430957E+03  20   1
  27  1.06285217E-01  7.11700000E+03  1.65628483E+04  26   1
 Number of shells = 27 (Compton IA model)
   1  1.43262474E+00  0.00000000E+00  2.09038938E+00   0  30
   2  4.88638812E+00  1.33031687E+01  4.59503720E-01   0  30
   3  2.78988779E+00  2.96181637E+01  5.20268705E-01   0  30
   4  7.02468809E-01  5.40000000E+01  1.91891000E-01  12   4
   5  3.51234404E-01  5.40000000E+01  1.91325000E-01  12   3
   6  2.12570434E-01  5.90000000E+01  2.22909000E-01  26   7
   7  1.06285217E-01  6.10000000E+01  2.20645000E-01  26   6
   8  2.80134263E-01  7.70000000E+01  1.67604000E-01  13   4
   9  1.40067131E-01  7.70000000E+01  1.67061000E-01  13   3
  10  3.51234404E-01  9.20000000E+01  3.41174000E-01  12   2
  11  1.06285217E-01  9.80000000E+01  3.51458000E-01  26   5
  12  1.13506494E+00  1.04000000E+02  1.49030000E-01  14   4
  13  5.67532472E-01  1.04000000E+02  1.48493000E-01  14   3
  14  1.40067131E-01  1.21000000E+02  3.03886000E-01  13   2
  15  5.67532472E-01  1.54000000E+02  2.74105000E-01  14   2
  16  3.94943894E-01  3.49000000E+02  9.01604000E-02  20   4
  17  1.97471947E-01  3.53000000E+02  8.95584000E-02  20   3
  18  1.97471947E-01  4.41000000E+02  1.72935000E-01  20   2
  19  2.00000000E+00  5.38000000E+02  1.13183000E-01   8   1
  20  2.12570434E-01  7.13000000E+02  6.49062000E-02  26   4
  21  1.06285217E-01  7.26000000E+02  6.41844000E-02  26   3
  22  1.06285217E-01  8.51000000E+02  1.25935000E-01  26   2
  23  3.51234404E-01  1.30800000E+03  7.42688000E-02  12   1
  24  1.40067131E-01  1.56400000E+03  6.83322000E-02  13   1
  25  5.67532472E-01  1.84400000E+03  6.32596000E-02  14   1
  26  1.97471947E-01  4.04100000E+03  4.36230000E-02  20   1
  27  1.06285217E-01  7.11700000E+03  3.31215000E-02  26   1
 *** RELAX:  Z = 14,  no. of shells =  6,  no. of transitions =  51
   1 1s1/2 2  1.84400E+03  6.32596E-02
   2 2s1/2 2  1.54000E+02  2.74105E-01
   3 2p1/2 2  1.04000E+02  1.48493E-01
   4 2p3/2 4  1.04000E+02  1.49030E-01
   5 3s1/2 2  1.34600E+01  1.03443E+00
   6 3p1/2 2  8.15100E+00  7.43235E-01
   1  3  0  1.59791E-02  1.73939E+03
   1  4  0  3.17052E-02  1.73998E+03
   1  6  0  2.72402E-04  1.83596E+03
   1  7  0  5.40444E-04  1.83596E+03
   1  2  2  7.47954E-02  1.52540E+03
   1  2  3  8.01214E-02  1.56828E+03
   1  2  4  1.56131E-01  1.56897E+03
   1  2  5  1.41124E-02  1.66332E+03
   1  2  6  1.95584E-03  1.67040E+03
   1  2  7  3.81585E-03  1.67043E+03
   1  3  3  1.39905E-02  1.61116E+03
   1  3  4  3.56408E-01  1.61185E+03
   1  3  5  6.76231E-03  1.70620E+03
   1  3  6  6.64732E-04  1.71328E+03
   1  3  7  7.97675E-03  1.71331E+03
   1  4  4  2.03104E-01  1.61254E+03
   1  4  5  1.31982E-02  1.70689E+03
   1  4  6  7.96407E-03  1.71397E+03
   1  4  7  9.16547E-03  1.71400E+03
   1  5  5  6.64748E-04  1.80124E+03
   1  5  6  1.66185E-04  1.80832E+03
   1  5  7  3.25975E-04  1.80835E+03
   1  6  6  6.39199E-06  1.81540E+03
   1  6  7  1.08669E-04  1.81543E+03
   1  7  7  6.39185E-05  1.81546E+03
   2  6  0  5.83271E-06  1.55240E+02
   2  7  0  1.07340E-05  1.45030E+02
   2  5  5  1.03158E-02  1.24290E+02
   2  5  6  5.00684E-03  1.31370E+02
   2  5  7  9.95440E-03  1.31400E+02
   2  6  6  3.23120E-05  1.38450E+02
   2  7  7  6.62381E-05  1.38510E+02
   3  5  0  4.72000E-05  9.50400E+01
   3  7  0  1.82830E-09  1.02150E+02
   3  5  5  6.76285E-02  8.14100E+01
   3  5  6  5.54847E-01  8.84900E+01
   3  5  7  3.51351E-02  8.85200E+01
   3  6  6  7.24466E-02  9.55700E+01
   3  6  7  2.62434E-01  9.56000E+01
   3  7  7  7.46220E-03  9.56300E+01
   4  5  0  4.42068E-05  9.43500E+01
   4  6  0  8.54246E-10  1.00630E+02
   4  7  0  8.43116E-10  1.01460E+02
   4  5  5  6.56816E-02  8.07200E+01
   4  5  6  1.73500E-02  8.78000E+01
   4  5  7  5.73636E-01  8.78300E+01
   4  6  6  1.08438E-03  9.48800E+01
   4  6  7  1.37565E-01  9.49100E+01
   4  7  7  2.04639E-01  9.49400E+01
   2 30  0  3.26940E-04  4.33570E+01
   2 30 30  9.74281E-01  3.11037E+01
 *** RELAX:  Z = 13,  no. of shells =  6,  no. of transitions =  40
   1 1s1/2 2  1.56400E+03  6.83322E-02
   2 2s1/2 2  1.21000E+02  3.03886E-01
   3 2p1/2 2  7.70000E+01  1.67061E-01
   4 2p3/2 4  7.70000E+01  1.67604E-01
   5 3s1/2 2  9.07500E+00  1.23808E+00
   6 3p1/2 1  9.07500E+00  9.18119E-01
   1  3  0  1.23699E-02  1.48630E+03
   1  4  0  2.45528E-02  1.48671E+03
   1  6  0  7.55854E-05  1.55757E+03
   1  7  0  1.50039E-04  1.55757E+03
   1  2  2  7.83944E-02  1.31180E+03
   1  2  3  8.32180E-02  1.34965E+03
   1  2  4  1.62725E-01  1.35012E+03
   1  2  5  1.35884E-02  1.42069E+03
   1  2  6  8.96794E-04  1.42597E+03
   1  2  7  1.76485E-03  1.42598E+03
   1  3  3  1.42920E-02  1.38750E+03
   1  3  4  3.66942E-01  1.38797E+03
   1  3  5  6.49294E-03  1.45854E+03
   1  3  6  3.01318E-04  1.46382E+03
   1  3  7  3.65883E-03  1.46383E+03
   1  4  4  2.09226E-01  1.38844E+03
   1  4  5  1.27063E-02  1.45901E+03
   1  4  6  3.65189E-03  1.46429E+03
   1  4  7  4.20421E-03  1.46430E+03
   1  5  5  5.81139E-04  1.52958E+03
   1  5  6  7.17440E-05  1.53486E+03
   1  5  7  1.36311E-04  1.53487E+03
   2  6  0  2.07691E-06  1.22300E+02
   2  7  0  4.02982E-06  1.14180E+02
   2  5  5  1.12532E-02  9.87300E+01
   2  5  6  2.61944E-03  1.04010E+02
   2  5  7  5.21749E-03  1.04020E+02
   3  5  0  1.60531E-05  7.10400E+01
   3  7  0  1.75611E-10  7.63300E+01
   3  5  5  1.50408E-01  6.08800E+01
   3  5  6  8.00076E-01  6.61600E+01
   3  5  7  4.94996E-02  6.61700E+01
   4  5  0  1.49999E-05  7.05700E+01
   4  6  0  8.20316E-11  7.58500E+01
   4  7  0  8.10126E-11  7.58600E+01
   4  5  5  1.44757E-01  6.04100E+01
   4  5  6  2.47625E-02  6.56900E+01
   4  5  7  8.30465E-01  6.57000E+01
   2 30  0  2.49536E-04  3.81712E+01
   2 30 30  9.80654E-01  2.85014E+01
 *** RELAX:  Z = 12,  no. of shells =  5,  no. of transitions =  19
   1 1s1/2 2  1.30800E+03  7.42688E-02
   2 2s1/2 2  9.20000E+01  3.41174E-01
   3 2p1/2 2  5.40000E+01  1.91325E-01
   4 2p3/2 4  5.40000E+01  1.91891E-01
   5 3s1/2 2  7.64600E+00  1.58368E+00
   1  3  0  9.27327E-03  1.25344E+03
   1  4  0  1.84189E-02  1.25369E+03
   1  2  2  8.23145E-02  1.11558E+03
   1  2  3  8.60821E-02  1.14849E+03
   1  2  4  1.68838E-01  1.14880E+03
   1  2  5  1.26143E-02  1.19815E+03
   1  3  3  1.44975E-02  1.18140E+03
   1  3  4  3.75508E-01  1.18171E+03
   1  3  5  5.99323E-03  1.23106E+03
   1  4  4  2.14213E-01  1.18202E+03
   1  4  5  1.17657E-02  1.23137E+03
   1  5  5  4.81078E-04  1.28072E+03
   2  5  5  1.20110E-02  7.56800E+01
   2 30  0  1.78346E-04  3.31193E+01
   2 30 30  9.87810E-01  2.62261E+01
   3 30  0  3.41139E-06  4.96600E+01
   3 30 30  9.99997E-01  4.27700E+01
   4 30  0  3.17959E-06  4.93500E+01
   4 30 30  9.99997E-01  4.24600E+01
 *** RELAX:  Z = 20,  no. of shells =  8,  no. of transitions =  72
   1 1s1/2 2  4.04100E+03  4.36230E-02
   2 2s1/2 2  4.41000E+02  1.72935E-01
   3 2p1/2 2  3.53000E+02  8.95584E-02
   4 2p3/2 4  3.49000E+02  9.01604E-02
   5 3s1/2 2  4.60000E+01  5.06050E-01
   6 3p1/2 2  2.80000E+01  3.28910E-01
   7 3p3/2 4  2.80000E+01  3.30822E-01
  10 4s1/2 2  6.11300E+00  1.93895E+00
   1  3  0  4.87196E-02  3.68813E+03
   1  4  0  9.61323E-02  3.69172E+03
   1  6  0  5.17776E-03  4.01276E+03
   1  7  0  1.02489E-02  4.01276E+03
   1  2  2  5.63485E-02  3.14678E+03
   1  2  3  6.20531E-02  3.22185E+03
   1  2  4  1.17762E-01  3.22569E+03
   1  2  5  1.42824E-02  3.52773E+03
   1  2  6  7.23290E-03  3.54688E+03
   1  2  7  1.37034E-02  3.54729E+03
   1  2 10  1.62556E-03  3.57544E+03
   1  3  3  1.12223E-02  3.29692E+03
   1  3  4  2.76841E-01  3.30076E+03
   1  3  5  6.82757E-03  3.60280E+03
   1  3  6  2.49498E-03  3.62195E+03
   1  3  7  2.84282E-02  3.62236E+03
   1  3 10  7.63476E-04  3.65051E+03
   1  4  4  1.56416E-01  3.30460E+03
   1  4  5  1.29934E-02  3.60664E+03
   1  4  6  2.83839E-02  3.62579E+03
   1  4  7  3.25412E-02  3.62620E+03
   1  4 10  1.45385E-03  3.65435E+03
   1  5  5  8.72175E-04  3.90868E+03
   1  5  6  7.79616E-04  3.92783E+03
   1  5  7  1.47733E-03  3.92824E+03
   1  5 10  1.99359E-04  3.95639E+03
   1  6  6  1.35157E-04  3.94698E+03
   1  6  7  2.93344E-03  3.94739E+03
   1  6 10  8.76773E-05  3.97554E+03
   1  7  7  1.69495E-03  3.94780E+03
   1  7 10  1.68035E-04  3.97595E+03
   2  3  0  9.42443E-05  7.50700E+01
   2  4  0  2.78501E-04  7.89100E+01
   2  6  0  2.04061E-04  4.15430E+02
   2  7  0  3.06021E-04  4.15800E+02
   2  3 10  1.42567E-02  6.96200E+01
   2  4 10  2.73691E-02  7.34600E+01
   2  5  5  1.31208E-02  3.27790E+02
   2  5  6  2.28754E-02  3.46940E+02
   2  5  7  4.52192E-02  3.47350E+02
   2  5 10  2.68682E-03  3.75500E+02
   2  6  6  5.21721E-04  3.66090E+02
   2  6  7  2.67985E-04  3.66500E+02
   2  6 10  2.04550E-03  3.94650E+02
   2  7  7  1.23299E-03  3.66910E+02
   2  7 10  4.04393E-03  3.95060E+02
   3  5  0  1.19571E-03  3.06430E+02
   3  7  0  8.74676E-07  3.27120E+02
   3 10  0  2.53632E-05  3.53590E+02
   3  5  5  1.08556E-02  2.52720E+02
   3  5  6  1.98917E-01  2.71870E+02
   3  5  7  1.45844E-02  2.72280E+02
   3  5 10  2.13424E-03  3.00430E+02
   3  6  6  1.61409E-01  2.91020E+02
   3  6  7  5.70643E-01  2.91430E+02
   3  6 10  2.29240E-02  3.19580E+02
   3  7  7  1.58751E-02  2.91840E+02
   3  7 10  1.43604E-03  3.19990E+02
   4  5  0  1.13130E-03  3.02690E+02
   4  6  0  4.05972E-07  3.23340E+02
   4  7  0  3.98812E-07  3.23710E+02
   4 10  0  2.39671E-05  3.49750E+02
   4  5  5  1.06175E-02  2.48880E+02
   4  5  6  6.94101E-03  2.68030E+02
   4  5  7  2.03179E-01  2.68440E+02
   4  5 10  2.10301E-03  2.96590E+02
   4  6  6  2.69658E-03  2.87180E+02
   4  6  7  2.95034E-01  2.87590E+02
   4  6 10  6.70949E-04  3.15740E+02
   4  7  7  4.53602E-01  2.88000E+02
   4  7 10  2.39998E-02  3.16150E+02
   2 30 30  8.65477E-01  3.53086E+01
 *** RELAX:  Z = 26,  no. of shells = 10,  no. of transitions = 148
   1 1s1/2 2  7.11700E+03  3.31215E-02
   2 2s1/2 2  8.51000E+02  1.25935E-01
   3 2p1/2 2  7.26000E+02  6.41844E-02
   4 2p3/2 4  7.13000E+02  6.49062E-02
   5 3s1/2 2  9.80000E+01  3.51458E-01
   6 3p1/2 2  6.10000E+01  2.20645E-01
   7 3p3/2 4  5.90000E+01  2.22909E-01
   8 3d3/2 4  9.00000E+00  2.01788E-01
   9 3d5/2 2  9.00000E+00  2.02832E-01
  10 4s1/2 2  7.87000E+00  1.53122E+00
   1  3  0  1.01391E-01  6.39103E+03
   1  4  0  1.98621E-01  6.40401E+03
   1  6  0  1.22111E-02  7.05818E+03
   1  7  0  2.40042E-02  7.05818E+03
   1  8  0  6.00794E-06  7.10826E+03
   1  9  0  8.77226E-06  7.10826E+03
   1  2  2  4.47039E-02  5.39748E+03
   1  2  3  4.96309E-02  5.50689E+03
   1  2  4  9.05528E-02  5.51975E+03
   1  2  5  1.20010E-02  6.13943E+03
   1  2  6  6.37861E-03  6.17240E+03
   1  2  7  1.15700E-02  6.17399E+03
   1  2  8  1.85335E-04  6.22753E+03
   1  2  9  2.57546E-04  6.22770E+03
   1  2 10  1.06145E-03  6.23291E+03
   1  3  3  8.91045E-03  5.61630E+03
   1  3  4  2.13819E-01  5.62916E+03
   1  3  5  5.68040E-03  6.24884E+03
   1  3  6  2.15909E-03  6.28181E+03
   1  3  7  2.36911E-02  6.28340E+03
   1  3  8  2.57540E-04  6.33694E+03
   1  3  9  9.60385E-04  6.33711E+03
   1  3 10  4.93427E-04  6.34232E+03
   1  4  4  1.19207E-01  5.64202E+03
   1  4  5  1.04085E-02  6.26170E+03
   1  4  6  2.36893E-02  6.29467E+03
   1  4  7  2.68353E-02  6.29626E+03
   1  4  8  1.19389E-03  6.34980E+03
   1  4  9  1.17463E-03  6.34997E+03
   1  4 10  9.02593E-04  6.35518E+03
   1  5  5  8.02277E-04  6.88138E+03
   1  5  6  7.39263E-04  6.91435E+03
   1  5  7  1.34525E-03  6.91594E+03
   1  5  8  1.93914E-05  6.96948E+03
   1  5  9  2.66629E-05  6.96965E+03
   1  5 10  1.40581E-04  6.97486E+03
   1  6  6  1.28144E-04  6.94732E+03
   1  6  7  2.71062E-03  6.94891E+03
   1  6  8  2.21776E-05  7.00245E+03
   1  6  9  8.87081E-05  7.00262E+03
   1  6 10  6.40678E-05  7.00783E+03
   1  7  7  1.58655E-03  6.95050E+03
   1  7  8  1.16223E-04  7.00404E+03
   1  7  9  1.11167E-04  7.00421E+03
   1  7 10  1.21269E-04  7.00942E+03
   1  8  9  3.85858E-06  7.05775E+03
   1  8 10  3.85858E-06  7.06296E+03
   1  9 10  3.51272E-06  7.06313E+03
   2  3  0  2.87212E-05  1.09410E+02
   2  4  0  1.12411E-04  1.22270E+02
   2  6  0  5.33553E-04  7.92200E+02
   2  7  0  7.92105E-04  7.92200E+02
   2  8  0  1.62101E-06  8.44520E+02
   2  9  0  2.20171E-06  8.45440E+02
   2  3  8  4.09703E-02  9.65000E+01
   2  3  9  6.68427E-02  9.66700E+01
   2  3 10  6.19976E-03  1.01880E+02
   2  4  6  6.47652E-02  5.42300E+01
   2  4  7  1.45310E-01  5.58200E+01
   2  4  8  9.68238E-02  1.09360E+02
   2  4  9  1.37175E-01  1.09530E+02
   2  4 10  1.13749E-02  1.14740E+02
   2  5  5  1.42253E-02  6.40940E+02
   2  5  6  2.56412E-02  6.73910E+02
   2  5  7  5.02067E-02  6.75500E+02
   2  5  8  1.57957E-02  7.29040E+02
   2  5  9  2.33060E-02  7.29210E+02
   2  5 10  2.24577E-03  7.34420E+02
   2  6  6  4.09652E-04  7.06880E+02
   2  6  7  6.68243E-04  7.08470E+02
   2  6  8  2.32428E-04  7.62010E+02
   2  6  9  4.40741E-03  7.62180E+02
   2  6 10  1.77081E-03  7.67390E+02
   2  7  7  1.17810E-03  7.10060E+02
   2  7  8  4.46042E-03  7.63600E+02
   2  7  9  3.23254E-03  7.63770E+02
   2  7 10  3.28901E-03  7.68980E+02
   2  8  8  2.58444E-04  8.17140E+02
   2  8  9  1.35249E-02  8.17310E+02
   2  8 10  1.10876E-03  8.22520E+02
   2  9  9  3.53869E-03  8.17480E+02
   2  9 10  1.55434E-03  8.22690E+02
   3  5  0  4.03768E-03  6.27800E+02
   3  7  0  9.18115E-06  6.70400E+02
   3  8  0  1.40199E-03  7.18320E+02
   3 10  0  8.27386E-05  7.26020E+02
   3  5  5  5.72017E-03  5.31530E+02
   3  5  6  1.04744E-01  5.64500E+02
   3  5  7  8.48542E-03  5.66090E+02
   3  5  8  3.52272E-03  6.19630E+02
   3  5  9  6.29489E-03  6.19800E+02
   3  5 10  8.72234E-04  6.25010E+02
   3  6  6  8.91640E-02  5.97470E+02
   3  6  7  3.09321E-01  5.99060E+02
   3  6  8  6.45901E-02  6.52600E+02
   3  6  9  1.25120E-01  6.52770E+02
   3  6 10  9.30123E-03  6.57980E+02
   3  7  7  8.61400E-03  6.00650E+02
   3  7  8  7.55051E-02  6.54190E+02
   3  7  9  1.14600E-02  6.54360E+02
   3  7 10  6.69397E-04  6.59570E+02
   3  8  8  2.94353E-02  7.07730E+02
   3  8  9  1.34354E-01  7.07900E+02
   3  8 10  3.10265E-04  7.13110E+02
   3  9  9  6.45717E-03  7.08070E+02
   3  9 10  5.27395E-04  7.13280E+02
   4  5  0  3.75953E-03  6.15300E+02
   4  6  0  4.56623E-06  6.50100E+02
   4  7  0  4.45063E-06  6.56800E+02
   4  8  0  1.14991E-04  7.04800E+02
   4  9  0  1.28521E-03  7.04800E+02
   4 10  0  7.69576E-05  7.13160E+02
   4  5  5  5.47610E-03  5.18670E+02
   4  5  6  3.75614E-03  5.51640E+02
   4  5  7  1.02560E-01  5.53230E+02
   4  5  8  4.09120E-03  6.06770E+02
   4  5  9  5.60270E-03  6.06940E+02
   4  5 10  8.34691E-04  6.12150E+02
   4  6  6  1.43545E-03  5.84610E+02
   4  6  7  1.55075E-01  5.86200E+02
   4  6  8  3.86376E-03  6.39740E+02
   4  6  9  3.74865E-02  6.39910E+02
   4  6 10  2.90883E-04  6.45120E+02
   4  7  7  2.29412E-01  5.87790E+02
   4  7  8  9.02988E-02  6.41330E+02
   4  7  9  1.34973E-01  6.41500E+02
   4  7 10  9.09931E-03  6.46710E+02
   4  8  8  5.93307E-03  6.94870E+02
   4  8  9  1.20726E-01  6.95040E+02
   4  8 10  4.31648E-04  7.00250E+02
   4  9  9  8.28033E-02  6.95210E+02
   4  9 10  6.04329E-04  7.00420E+02
   5  8  8  1.07986E-03  7.51900E+01
   5  8  9  2.33924E-02  7.53600E+01
   5  8 10  2.57210E-02  8.05700E+01
   5  9  9  6.79262E-03  7.55300E+01
   5  9 10  3.82746E-02  8.07400E+01
   6  8  0  3.89240E-06  5.51300E+01
   6 10  0  3.74790E-07  6.05100E+01
   7  8  0  3.49259E-07  5.35400E+01
   7  9  0  3.18269E-06  5.37100E+01
   7 10  0  1.15860E-07  5.89200E+01
   2 30 30  2.58014E-01  3.13991E+01
   3 30  0  2.04719E-10  1.28600E+01
   5 30  0  1.44183E-05  3.40828E+01
   5 30 30  9.04726E-01  2.23033E+01
   6 30 30  9.99996E-01  4.28322E+01
   7 30 30  9.99996E-01  4.13518E+01
 *** RELAX:  Z =  8,  no. of shells =  4,  no. of transitions =   8
   1 1s1/2 2  5.38000E+02  1.13183E-01
   2 2s1/2 2  2.84800E+01  5.77977E-01
   3 2p1/2 2  1.36200E+01  3.49407E-01
   4 2p3/2 2  1.36200E+01  3.49884E-01
   1  3  0  1.90768E-03  5.23090E+02
   1  4  0  3.80027E-03  5.23130E+02
   1  2  2  1.78644E-01  4.78820E+02
   1  2  3  1.16224E-01  4.93860E+02
   1  2  4  2.30418E-01  4.93900E+02
   1  3  3  1.10822E-02  5.08900E+02
   1  3  4  2.91115E-01  5.08940E+02
   1  4  4  1.66809E-01  5.08980E+02
 *** Electron scaled bremss x-section,  ZEQ = 1.17510E+01,  NDATA =  57
 1.00E+03 5.95807E+00 6.01944E+00 6.07824E+00 6.13252E+00 6.18273E+00
          6.27332E+00 6.35004E+00 6.41351E+00 6.46484E+00 6.50646E+00
          6.54179E+00 6.57198E+00 6.59802E+00 6.62105E+00 6.64326E+00
          6.66643E+00 6.69023E+00 6.71347E+00 6.73502E+00 6.75552E+00
          6.77495E+00 6.78379E+00 6.79270E+00 6.80010E+00 6.80806E+00
          6.81001E+00 6.81158E+00 6.81176E+00 6.81193E+00 6.81195E+00
          6.81198E+00 6.81199E+00                                     5.647E+00
 1.50E+03 7.07199E+00 7.13276E+00 7.19026E+00 7.24197E+00 7.28855E+00
          7.36948E+00 7.43273E+00 7.47871E+00 7.50896E+00 7.52668E+00
          7.53616E+00 7.53863E+00 7.53508E+00 7.52698E+00 7.51760E+00
          7.50976E+00 7.50323E+00 7.49675E+00 7.48962E+00 7.48417E+00
          7.48273E+00 7.48257E+00 7.47974E+00 7.47483E+00 7.47228E+00
          7.47244E+00 7.47150E+00 7.47126E+00 7.47123E+00 7.47123E+00
          7.47132E+00 7.47121E+00                                     6.445E+00
 2.00E+03 7.90487E+00 7.97134E+00 8.03242E+00 8.08403E+00 8.12732E+00
          8.19514E+00 8.23876E+00 8.26210E+00 8.26781E+00 8.25992E+00
          8.24361E+00 8.21991E+00 8.18918E+00 8.15300E+00 8.11598E+00
          8.08218E+00 8.05152E+00 8.02256E+00 7.99463E+00 7.97083E+00
          7.95282E+00 7.94395E+00 7.93233E+00 7.92039E+00 7.91034E+00
          7.90883E+00 7.90642E+00 7.90597E+00 7.90580E+00 7.90577E+00
          7.90586E+00 7.90576E+00                                     7.012E+00
 3.00E+03 9.11800E+00 9.20034E+00 9.27218E+00 9.32559E+00 9.36294E+00
          9.40306E+00 9.40379E+00 9.37825E+00 9.33172E+00 9.27007E+00
          9.20070E+00 9.12619E+00 9.04848E+00 8.97015E+00 8.89362E+00
          8.82150E+00 8.75421E+00 8.69134E+00 8.63254E+00 8.57821E+00
          8.52928E+00 8.50684E+00 8.48382E+00 8.46452E+00 8.44462E+00
          8.43969E+00 8.43567E+00 8.43514E+00 8.43476E+00 8.43470E+00
          8.43469E+00 8.43465E+00                                     7.786E+00
 4.00E+03 1.00015E+01 1.00938E+01 1.01711E+01 1.02222E+01 1.02506E+01
          1.02595E+01 1.02171E+01 1.01448E+01 1.00507E+01 9.94259E+00
          9.82989E+00 9.71531E+00 9.60013E+00 9.48655E+00 9.37631E+00
          9.27183E+00 9.17404E+00 9.08339E+00 9.00022E+00 8.92416E+00
          8.85477E+00 8.82241E+00 8.79040E+00 8.76487E+00 8.73827E+00
          8.73174E+00 8.72651E+00 8.72583E+00 8.72533E+00 8.72525E+00
          8.72520E+00 8.72521E+00                                     8.295E+00
 5.00E+03 1.07027E+01 1.07866E+01 1.08553E+01 1.08976E+01 1.09169E+01
          1.09059E+01 1.08365E+01 1.07263E+01 1.05864E+01 1.04304E+01
          1.02743E+01 1.01217E+01 9.97251E+00 9.82838E+00 9.69167E+00
          9.56502E+00 9.44778E+00 9.33659E+00 9.22936E+00 9.13068E+00
          9.04522E+00 9.00658E+00 8.96766E+00 8.93607E+00 8.90491E+00
          8.89723E+00 8.89104E+00 8.89027E+00 8.88966E+00 8.88958E+00
          8.88953E+00 8.88953E+00                                     8.657E+00
 6.00E+03 1.12703E+01 1.13532E+01 1.14184E+01 1.14527E+01 1.14603E+01
          1.14191E+01 1.13128E+01 1.11635E+01 1.09843E+01 1.07909E+01
          1.06010E+01 1.04182E+01 1.02415E+01 1.00720E+01 9.91218E+00
          9.76436E+00 9.62763E+00 9.49770E+00 9.37190E+00 9.25594E+00
          9.15580E+00 9.11085E+00 9.06605E+00 9.03017E+00 8.99511E+00
          8.98648E+00 8.97956E+00 8.97870E+00 8.97801E+00 8.97792E+00
          8.97787E+00 8.97788E+00                                     8.925E+00
 8.00E+03 1.21511E+01 1.22396E+01 1.23023E+01 1.23203E+01 1.23004E+01
          1.21855E+01 1.19956E+01 1.17708E+01 1.15266E+01 1.12767E+01
          1.10366E+01 1.08082E+01 1.05891E+01 1.03790E+01 1.01802E+01
          9.99507E+00 9.82322E+00 9.66154E+00 9.50785E+00 9.36531E+00
          9.23912E+00 9.18308E+00 9.12875E+00 9.08655E+00 9.04499E+00
          9.03498E+00 9.02693E+00 9.02588E+00 9.02510E+00 9.02500E+00
          9.02493E+00 9.02493E+00                                     9.290E+00
 1.00E+04 1.28356E+01 1.29103E+01 1.29559E+01 1.29506E+01 1.29029E+01
          1.27266E+01 1.24719E+01 1.21857E+01 1.18851E+01 1.15847E+01
          1.13003E+01 1.10328E+01 1.07790E+01 1.05371E+01 1.03095E+01
          1.00975E+01 9.90043E+00 9.71397E+00 9.53549E+00 9.36966E+00
          9.22309E+00 9.15787E+00 9.09546E+00 9.04795E+00 9.00144E+00
          8.99027E+00 8.98134E+00 8.98018E+00 8.97933E+00 8.97920E+00
          8.97913E+00 8.97911E+00                                     9.519E+00
 1.50E+04 1.40469E+01 1.40848E+01 1.40854E+01 1.40214E+01 1.39055E+01
          1.35824E+01 1.31816E+01 1.27678E+01 1.23591E+01 1.19670E+01
          1.16037E+01 1.12663E+01 1.09498E+01 1.06489E+01 1.03670E+01
          1.01043E+01 9.85924E+00 9.62677E+00 9.40377E+00 9.19592E+00
          9.00916E+00 8.92384E+00 8.84385E+00 8.78558E+00 8.73007E+00
          8.71681E+00 8.70637E+00 8.70503E+00 8.70403E+00 8.70388E+00
          8.70379E+00 8.70376E+00                                     9.809E+00
 2.00E+04 1.51783E+01 1.50093E+01 1.48262E+01 1.46193E+01 1.43972E+01
          1.39406E+01 1.34735E+01 1.30135E+01 1.25656E+01 1.21331E+01
          1.17195E+01 1.13254E+01 1.09533E+01 1.06010E+01 1.02702E+01
          9.95831E+00 9.66647E+00 9.39523E+00 9.14481E+00 8.91314E+00
          8.70436E+00 8.61575E+00 8.54365E+00 8.49352E+00 8.39289E+00
          8.35209E+00 8.35847E+00 8.36436E+00 8.36104E+00 8.35896E+00
          8.36253E+00 8.36019E+00                                     9.908E+00
 3.00E+04 1.61987E+01 1.59786E+01 1.57356E+01 1.54541E+01 1.51480E+01
          1.45181E+01 1.38813E+01 1.32688E+01 1.26879E+01 1.21423E+01
          1.16329E+01 1.11602E+01 1.07199E+01 1.03060E+01 9.92211E+00
          9.56609E+00 9.23575E+00 8.92699E+00 8.63696E+00 8.36691E+00
          8.11754E+00 8.00208E+00 7.89842E+00 7.82334E+00 7.71938E+00
          7.68367E+00 7.68792E+00 7.69240E+00 7.68884E+00 7.68698E+00
          7.68966E+00 7.68803E+00                                     9.932E+00
 4.00E+04 1.68008E+01 1.65764E+01 1.63141E+01 1.59879E+01 1.56183E+01
          1.48393E+01 1.40494E+01 1.33102E+01 1.26295E+01 1.20071E+01
          1.14390E+01 1.09210E+01 1.04437E+01 9.99561E+00 9.58076E+00
          9.19820E+00 8.84208E+00 8.50418E+00 8.17914E+00 7.87262E+00
          7.58542E+00 7.44664E+00 7.31623E+00 7.22279E+00 7.13445E+00
          7.11128E+00 7.10383E+00 7.10412E+00 7.10188E+00 7.10112E+00
          7.10183E+00 7.10143E+00                                     9.876E+00
 5.00E+04 1.73796E+01 1.70373E+01 1.66694E+01 1.62592E+01 1.58250E+01
          1.49555E+01 1.41016E+01 1.32999E+01 1.25563E+01 1.18727E+01
          1.12503E+01 1.06862E+01 1.01740E+01 9.70028E+00 9.26345E+00
          8.86074E+00 8.48426E+00 8.12601E+00 7.77904E+00 7.44273E+00
          7.11860E+00 6.96378E+00 6.81987E+00 6.71911E+00 6.63562E+00
          6.61906E+00 6.60371E+00 6.60165E+00 6.60045E+00 6.60023E+00
          6.60026E+00 6.60017E+00                                     9.798E+00
 6.00E+04 1.79018E+01 1.74130E+01 1.69179E+01 1.64143E+01 1.59157E+01
          1.49730E+01 1.40843E+01 1.32493E+01 1.24690E+01 1.17447E+01
          1.10812E+01 1.04792E+01 9.93538E+00 9.43732E+00 8.97752E+00
          8.55192E+00 8.15337E+00 7.77824E+00 7.42074E+00 7.06904E+00
          6.71720E+00 6.54859E+00 6.39734E+00 6.29590E+00 6.20636E+00
          6.18875E+00 6.17251E+00 6.17039E+00 6.16909E+00 6.16885E+00
          6.16894E+00 6.16876E+00                                     9.716E+00
 8.00E+04 1.84934E+01 1.79068E+01 1.73148E+01 1.67160E+01 1.61266E+01
          1.50223E+01 1.40023E+01 1.30712E+01 1.22231E+01 1.14486E+01
          1.07434E+01 1.01073E+01 9.52892E+00 8.99485E+00 8.49823E+00
          8.03881E+00 7.60968E+00 7.20622E+00 6.82196E+00 6.44057E+00
          6.05410E+00 5.86942E+00 5.70772E+00 5.60209E+00 5.50241E+00
          5.48117E+00 5.46384E+00 5.46175E+00 5.46022E+00 5.45995E+00
          5.45994E+00 5.45976E+00                                     9.576E+00
 1.00E+05 1.89243E+01 1.82268E+01 1.75337E+01 1.68515E+01 1.61945E+01
          1.49884E+01 1.38958E+01 1.29045E+01 1.20043E+01 1.11862E+01
          1.04439E+01 9.77824E+00 9.17633E+00 8.62310E+00 8.10643E+00
          7.62329E+00 7.17003E+00 6.74227E+00 6.33571E+00 5.93472E+00
          5.53036E+00 5.33591E+00 5.16378E+00 5.04988E+00 4.94279E+00
          4.91744E+00 4.89916E+00 4.89726E+00 4.89538E+00 4.89506E+00
          4.89495E+00 4.89482E+00                                     9.455E+00
 1.50E+05 1.95253E+01 1.86928E+01 1.78670E+01 1.70561E+01 1.62757E+01
          1.48458E+01 1.35756E+01 1.24617E+01 1.14797E+01 1.06101E+01
          9.83589E+00 9.14166E+00 8.50795E+00 7.91711E+00 7.36056E+00
          6.83694E+00 6.34897E+00 5.88781E+00 5.44813E+00 5.01943E+00
          4.59475E+00 4.38788E+00 4.19382E+00 4.05448E+00 3.93062E+00
          3.90225E+00 3.88023E+00 3.87762E+00 3.87549E+00 3.87520E+00
          3.87497E+00 3.87491E+00                                     9.241E+00
 2.00E+05 2.00288E+01 1.89897E+01 1.79866E+01 1.70488E+01 1.61804E+01
          1.46348E+01 1.32964E+01 1.21293E+01 1.11024E+01 1.01925E+01
          9.38562E+00 8.66418E+00 8.01030E+00 7.40673E+00 6.83635E+00
          6.29162E+00 5.77990E+00 5.30177E+00 4.85133E+00 4.41428E+00
          3.97949E+00 3.76443E+00 3.55449E+00 3.39701E+00 3.26348E+00
          3.23254E+00 3.20754E+00 3.20462E+00 3.20222E+00 3.20185E+00
          3.20168E+00 3.20164E+00                                     9.116E+00
 3.00E+05 2.07244E+01 1.94352E+01 1.82152E+01 1.71177E+01 1.61303E+01
          1.43985E+01 1.29316E+01 1.16796E+01 1.06070E+01 9.66966E+00
          8.83574E+00 8.08680E+00 7.40480E+00 6.77430E+00 6.18039E+00
          5.61545E+00 5.08419E+00 4.59359E+00 4.13383E+00 3.68674E+00
          3.24023E+00 3.01791E+00 2.79930E+00 2.63201E+00 2.48215E+00
          2.44637E+00 2.41764E+00 2.41426E+00 2.41143E+00 2.41104E+00
          2.41078E+00 2.41077E+00                                     9.082E+00
 4.00E+05 2.12908E+01 1.98067E+01 1.84265E+01 1.72264E+01 1.61728E+01
          1.43369E+01 1.28028E+01 1.14961E+01 1.03838E+01 9.41910E+00
          8.56092E+00 7.78782E+00 7.08200E+00 6.42933E+00 5.81957E+00
          5.24629E+00 4.70885E+00 4.20840E+00 3.73996E+00 3.28512E+00
          2.83413E+00 2.60958E+00 2.38869E+00 2.21730E+00 2.05433E+00
          2.01504E+00 1.98380E+00 1.97971E+00 1.97668E+00 1.97635E+00
          1.97597E+00 1.97594E+00                                     9.215E+00
 5.00E+05 2.18027E+01 2.01690E+01 1.86675E+01 1.73937E+01 1.62931E+01
          1.43741E+01 1.27879E+01 1.14433E+01 1.03018E+01 9.31397E+00
          8.43387E+00 7.63891E+00 6.91433E+00 6.24721E+00 5.62565E+00
          5.04188E+00 4.49432E+00 3.98319E+00 3.50778E+00 3.04972E+00
          2.59447E+00 2.36648E+00 2.14076E+00 1.96337E+00 1.79039E+00
          1.74787E+00 1.71419E+00 1.70987E+00 1.70660E+00 1.70619E+00
          1.70585E+00 1.70571E+00                                     9.430E+00
 6.00E+05 2.22576E+01 2.05110E+01 1.89194E+01 1.75926E+01 1.64582E+01
          1.44696E+01 1.28371E+01 1.14639E+01 1.02997E+01 9.29239E+00
          8.39406E+00 7.58171E+00 6.84153E+00 6.16124E+00 5.52822E+00
          4.93401E+00 4.37661E+00 3.85559E+00 3.37095E+00 2.90873E+00
          2.44825E+00 2.21642E+00 1.98464E+00 1.79997E+00 1.61758E+00
          1.57223E+00 1.53617E+00 1.53160E+00 1.52808E+00 1.52763E+00
          1.52728E+00 1.52709E+00                                     9.689E+00
