 PENELOPE (v. 2012)  Material data file ...............
 Material: Garnet                                                        
 Mass density = 3.56000000E+00 g/cm**3
 Number of elements in the molecule =  7
   atomic number =  8,  atoms/molecule = 1.00000000E+00
   atomic number = 12,  atoms/molecule = 4.07528858E-02
   atomic number = 13,  atoms/molecule = 1.90132770E-01
   atomic number = 14,  atoms/molecule = 2.90989328E-01
   atomic number = 20,  atoms/molecule = 1.67347811E-02
   atomic number = 25,  atoms/molecule = 8.49726184E-02
   atomic number = 26,  atoms/molecule = 1.57396502E-01
 Mean excitation energy = 1.58449954E+02 eV
 Number of oscillators = 34 (E/P inelastic model)
   1  1.75209054E+00  0.00000000E+00  1.07979109E+01   0  30
   2  5.95122076E+00  1.25485836E+01  3.02964247E+01   0  30
   3  2.13387825E+00  2.87322124E+01  6.85740995E+01   0  30
   4  3.39890473E-01  5.30000000E+01  1.25676343E+02  25   7
   5  8.15057716E-02  5.40000000E+01  1.28000583E+02  12   3
   6  1.63011543E-01  5.40000000E+01  1.28014706E+02  12   4
   7  1.69945237E-01  5.50000000E+01  1.30385492E+02  25   6
   8  6.29586007E-01  5.90000000E+01  1.39936889E+02  26   7
   9  3.14793003E-01  6.10000000E+01  1.44625584E+02  26   6
  10  3.80265541E-01  7.70000000E+01  1.82545421E+02  13   3
  11  7.60531081E-01  7.70000000E+01  1.82591623E+02  13   4
  12  1.69945237E-01  8.90000000E+01  2.10958513E+02  25   5
  13  8.15057716E-02  9.20000000E+01  2.18059292E+02  12   2
  14  3.14793003E-01  9.80000000E+01  2.32301779E+02  26   5
  15  5.81978656E-01  1.04000000E+02  2.46544803E+02  14   3
  16  1.16395731E+00  1.04000000E+02  2.46597159E+02  14   4
  17  3.80265541E-01  1.21000000E+02  2.86813880E+02  13   2
  18  5.81978656E-01  1.54000000E+02  3.65033782E+02  14   2
  19  6.69391245E-02  3.49000000E+02  8.27173527E+02  20   4
  20  3.34695622E-02  3.53000000E+02  8.36653098E+02  20   3
  21  3.34695622E-02  4.41000000E+02  1.04522344E+03  20   2
  22  2.00000000E+00  5.38000000E+02  1.27515912E+03   8   1
  23  3.39890473E-01  6.45000000E+02  1.52873206E+03  25   4
  24  1.69945237E-01  6.56000000E+02  1.55480087E+03  25   3
  25  6.29586007E-01  7.13000000E+02  1.68990352E+03  26   4
  26  3.14793003E-01  7.26000000E+02  1.72071087E+03  26   3
  27  1.69945237E-01  7.55000000E+02  1.78944239E+03  25   2
  28  3.14793003E-01  8.51000000E+02  2.01697522E+03  26   2
  29  8.15057716E-02  1.30800000E+03  3.10011699E+03  12   1
  30  3.80265541E-01  1.56400000E+03  3.70686929E+03  13   1
  31  5.81978656E-01  1.84400000E+03  4.37050345E+03  14   1
  32  3.34695622E-02  4.04100000E+03  9.57765328E+03  20   1
  33  1.69945237E-01  6.54400000E+03  1.55100627E+04  25   1
  34  3.14793003E-01  7.11700000E+03  1.68681414E+04  26   1
 Number of shells = 34 (Compton IA model)
   1  1.75209054E+00  0.00000000E+00  1.23130769E+00   0  30
   2  5.95122076E+00  1.25485836E+01  4.72683334E-01   0  30
   3  2.13387825E+00  2.87322124E+01  5.65189078E-01   0  30
   4  3.39890473E-01  5.30000000E+01  2.35040000E-01  25   7
   5  1.63011543E-01  5.40000000E+01  1.91891000E-01  12   4
   6  8.15057716E-02  5.40000000E+01  1.91325000E-01  12   3
   7  1.69945237E-01  5.50000000E+01  2.32855000E-01  25   6
   8  6.29586007E-01  5.90000000E+01  2.22909000E-01  26   7
   9  3.14793003E-01  6.10000000E+01  2.20645000E-01  26   6
  10  7.60531081E-01  7.70000000E+01  1.67604000E-01  13   4
  11  3.80265541E-01  7.70000000E+01  1.67061000E-01  13   3
  12  1.69945237E-01  8.90000000E+01  3.69361000E-01  25   5
  13  8.15057716E-02  9.20000000E+01  3.41174000E-01  12   2
  14  3.14793003E-01  9.80000000E+01  3.51458000E-01  26   5
  15  1.16395731E+00  1.04000000E+02  1.49030000E-01  14   4
  16  5.81978656E-01  1.04000000E+02  1.48493000E-01  14   3
  17  3.80265541E-01  1.21000000E+02  3.03886000E-01  13   2
  18  5.81978656E-01  1.54000000E+02  2.74105000E-01  14   2
  19  6.69391245E-02  3.49000000E+02  9.01604000E-02  20   4
  20  3.34695622E-02  3.53000000E+02  8.95584000E-02  20   3
  21  3.34695622E-02  4.41000000E+02  1.72935000E-01  20   2
  22  2.00000000E+00  5.38000000E+02  1.13183000E-01   8   1
  23  3.39890473E-01  6.45000000E+02  6.80680000E-02  25   4
  24  1.69945237E-01  6.56000000E+02  6.73678000E-02  25   3
  25  6.29586007E-01  7.13000000E+02  6.49062000E-02  26   4
  26  3.14793003E-01  7.26000000E+02  6.41844000E-02  26   3
  27  1.69945237E-01  7.55000000E+02  1.31920000E-01  25   2
  28  3.14793003E-01  8.51000000E+02  1.25935000E-01  26   2
  29  8.15057716E-02  1.30800000E+03  7.42688000E-02  12   1
  30  3.80265541E-01  1.56400000E+03  6.83322000E-02  13   1
  31  5.81978656E-01  1.84400000E+03  6.32596000E-02  14   1
  32  3.34695622E-02  4.04100000E+03  4.36230000E-02  20   1
  33  1.69945237E-01  6.54400000E+03  3.45189000E-02  25   1
  34  3.14793003E-01  7.11700000E+03  3.31215000E-02  26   1
 *** RELAX:  Z =  8,  no. of shells =  4,  no. of transitions =   8
   1 1s1/2 2  5.38000E+02  1.13183E-01
   2 2s1/2 2  2.84800E+01  5.77977E-01
   3 2p1/2 2  1.36200E+01  3.49407E-01
   4 2p3/2 2  1.36200E+01  3.49884E-01
   1  3  0  1.90768E-03  5.23090E+02
   1  4  0  3.80027E-03  5.23130E+02
   1  2  2  1.78644E-01  4.78820E+02
   1  2  3  1.16224E-01  4.93860E+02
   1  2  4  2.30418E-01  4.93900E+02
   1  3  3  1.10822E-02  5.08900E+02
   1  3  4  2.91115E-01  5.08940E+02
   1  4  4  1.66809E-01  5.08980E+02
 *** RELAX:  Z = 12,  no. of shells =  5,  no. of transitions =  19
   1 1s1/2 2  1.30800E+03  7.42688E-02
   2 2s1/2 2  9.20000E+01  3.41174E-01
   3 2p1/2 2  5.40000E+01  1.91325E-01
   4 2p3/2 4  5.40000E+01  1.91891E-01
   5 3s1/2 2  7.64600E+00  1.58368E+00
   1  3  0  9.27327E-03  1.25344E+03
   1  4  0  1.84189E-02  1.25369E+03
   1  2  2  8.23145E-02  1.11558E+03
   1  2  3  8.60821E-02  1.14849E+03
   1  2  4  1.68838E-01  1.14880E+03
   1  2  5  1.26143E-02  1.19815E+03
   1  3  3  1.44975E-02  1.18140E+03
   1  3  4  3.75508E-01  1.18171E+03
   1  3  5  5.99323E-03  1.23106E+03
   1  4  4  2.14213E-01  1.18202E+03
   1  4  5  1.17657E-02  1.23137E+03
   1  5  5  4.81078E-04  1.28072E+03
   2  5  5  1.20110E-02  7.56800E+01
   2 30  0  1.78346E-04  3.31193E+01
   2 30 30  9.87810E-01  2.62261E+01
   3 30  0  3.41139E-06  4.96600E+01
   3 30 30  9.99997E-01  4.27700E+01
   4 30  0  3.17959E-06  4.93500E+01
   4 30 30  9.99997E-01  4.24600E+01
 *** RELAX:  Z = 13,  no. of shells =  6,  no. of transitions =  40
   1 1s1/2 2  1.56400E+03  6.83322E-02
   2 2s1/2 2  1.21000E+02  3.03886E-01
   3 2p1/2 2  7.70000E+01  1.67061E-01
   4 2p3/2 4  7.70000E+01  1.67604E-01
   5 3s1/2 2  9.07500E+00  1.23808E+00
   6 3p1/2 1  9.07500E+00  9.18119E-01
   1  3  0  1.23699E-02  1.48630E+03
   1  4  0  2.45528E-02  1.48671E+03
   1  6  0  7.55854E-05  1.55757E+03
   1  7  0  1.50039E-04  1.55757E+03
   1  2  2  7.83944E-02  1.31180E+03
   1  2  3  8.32180E-02  1.34965E+03
   1  2  4  1.62725E-01  1.35012E+03
   1  2  5  1.35884E-02  1.42069E+03
   1  2  6  8.96794E-04  1.42597E+03
   1  2  7  1.76485E-03  1.42598E+03
   1  3  3  1.42920E-02  1.38750E+03
   1  3  4  3.66942E-01  1.38797E+03
   1  3  5  6.49294E-03  1.45854E+03
   1  3  6  3.01318E-04  1.46382E+03
   1  3  7  3.65883E-03  1.46383E+03
   1  4  4  2.09226E-01  1.38844E+03
   1  4  5  1.27063E-02  1.45901E+03
   1  4  6  3.65189E-03  1.46429E+03
   1  4  7  4.20421E-03  1.46430E+03
   1  5  5  5.81139E-04  1.52958E+03
   1  5  6  7.17440E-05  1.53486E+03
   1  5  7  1.36311E-04  1.53487E+03
   2  6  0  2.07691E-06  1.22300E+02
   2  7  0  4.02982E-06  1.14180E+02
   2  5  5  1.12532E-02  9.87300E+01
   2  5  6  2.61944E-03  1.04010E+02
   2  5  7  5.21749E-03  1.04020E+02
   3  5  0  1.60531E-05  7.10400E+01
   3  7  0  1.75611E-10  7.63300E+01
   3  5  5  1.50408E-01  6.08800E+01
   3  5  6  8.00076E-01  6.61600E+01
   3  5  7  4.94996E-02  6.61700E+01
   4  5  0  1.49999E-05  7.05700E+01
   4  6  0  8.20316E-11  7.58500E+01
   4  7  0  8.10126E-11  7.58600E+01
   4  5  5  1.44757E-01  6.04100E+01
   4  5  6  2.47625E-02  6.56900E+01
   4  5  7  8.30465E-01  6.57000E+01
   2 30  0  2.49536E-04  3.81712E+01
   2 30 30  9.80654E-01  2.85014E+01
 *** RELAX:  Z = 14,  no. of shells =  6,  no. of transitions =  51
   1 1s1/2 2  1.84400E+03  6.32596E-02
   2 2s1/2 2  1.54000E+02  2.74105E-01
   3 2p1/2 2  1.04000E+02  1.48493E-01
   4 2p3/2 4  1.04000E+02  1.49030E-01
   5 3s1/2 2  1.34600E+01  1.03443E+00
   6 3p1/2 2  8.15100E+00  7.43235E-01
   1  3  0  1.59791E-02  1.73939E+03
   1  4  0  3.17052E-02  1.73998E+03
   1  6  0  2.72402E-04  1.83596E+03
   1  7  0  5.40444E-04  1.83596E+03
   1  2  2  7.47954E-02  1.52540E+03
   1  2  3  8.01214E-02  1.56828E+03
   1  2  4  1.56131E-01  1.56897E+03
   1  2  5  1.41124E-02  1.66332E+03
   1  2  6  1.95584E-03  1.67040E+03
   1  2  7  3.81585E-03  1.67043E+03
   1  3  3  1.39905E-02  1.61116E+03
   1  3  4  3.56408E-01  1.61185E+03
   1  3  5  6.76231E-03  1.70620E+03
   1  3  6  6.64732E-04  1.71328E+03
   1  3  7  7.97675E-03  1.71331E+03
   1  4  4  2.03104E-01  1.61254E+03
   1  4  5  1.31982E-02  1.70689E+03
   1  4  6  7.96407E-03  1.71397E+03
   1  4  7  9.16547E-03  1.71400E+03
   1  5  5  6.64748E-04  1.80124E+03
   1  5  6  1.66185E-04  1.80832E+03
   1  5  7  3.25975E-04  1.80835E+03
   1  6  6  6.39199E-06  1.81540E+03
   1  6  7  1.08669E-04  1.81543E+03
   1  7  7  6.39185E-05  1.81546E+03
   2  6  0  5.83271E-06  1.55240E+02
   2  7  0  1.07340E-05  1.45030E+02
   2  5  5  1.03158E-02  1.24290E+02
   2  5  6  5.00684E-03  1.31370E+02
   2  5  7  9.95440E-03  1.31400E+02
   2  6  6  3.23120E-05  1.38450E+02
   2  7  7  6.62381E-05  1.38510E+02
   3  5  0  4.72000E-05  9.50400E+01
   3  7  0  1.82830E-09  1.02150E+02
   3  5  5  6.76285E-02  8.14100E+01
   3  5  6  5.54847E-01  8.84900E+01
   3  5  7  3.51351E-02  8.85200E+01
   3  6  6  7.24466E-02  9.55700E+01
   3  6  7  2.62434E-01  9.56000E+01
   3  7  7  7.46220E-03  9.56300E+01
   4  5  0  4.42068E-05  9.43500E+01
   4  6  0  8.54246E-10  1.00630E+02
   4  7  0  8.43116E-10  1.01460E+02
   4  5  5  6.56816E-02  8.07200E+01
   4  5  6  1.73500E-02  8.78000E+01
   4  5  7  5.73636E-01  8.78300E+01
   4  6  6  1.08438E-03  9.48800E+01
   4  6  7  1.37565E-01  9.49100E+01
   4  7  7  2.04639E-01  9.49400E+01
   2 30  0  3.26940E-04  4.33570E+01
   2 30 30  9.74281E-01  3.11037E+01
 *** RELAX:  Z = 20,  no. of shells =  8,  no. of transitions =  72
   1 1s1/2 2  4.04100E+03  4.36230E-02
   2 2s1/2 2  4.41000E+02  1.72935E-01
   3 2p1/2 2  3.53000E+02  8.95584E-02
   4 2p3/2 4  3.49000E+02  9.01604E-02
   5 3s1/2 2  4.60000E+01  5.06050E-01
   6 3p1/2 2  2.80000E+01  3.28910E-01
   7 3p3/2 4  2.80000E+01  3.30822E-01
  10 4s1/2 2  6.11300E+00  1.93895E+00
   1  3  0  4.87196E-02  3.68813E+03
   1  4  0  9.61323E-02  3.69172E+03
   1  6  0  5.17776E-03  4.01276E+03
   1  7  0  1.02489E-02  4.01276E+03
   1  2  2  5.63485E-02  3.14678E+03
   1  2  3  6.20531E-02  3.22185E+03
   1  2  4  1.17762E-01  3.22569E+03
   1  2  5  1.42824E-02  3.52773E+03
   1  2  6  7.23290E-03  3.54688E+03
   1  2  7  1.37034E-02  3.54729E+03
   1  2 10  1.62556E-03  3.57544E+03
   1  3  3  1.12223E-02  3.29692E+03
   1  3  4  2.76841E-01  3.30076E+03
   1  3  5  6.82757E-03  3.60280E+03
   1  3  6  2.49498E-03  3.62195E+03
   1  3  7  2.84282E-02  3.62236E+03
   1  3 10  7.63476E-04  3.65051E+03
   1  4  4  1.56416E-01  3.30460E+03
   1  4  5  1.29934E-02  3.60664E+03
   1  4  6  2.83839E-02  3.62579E+03
   1  4  7  3.25412E-02  3.62620E+03
   1  4 10  1.45385E-03  3.65435E+03
   1  5  5  8.72175E-04  3.90868E+03
   1  5  6  7.79616E-04  3.92783E+03
   1  5  7  1.47733E-03  3.92824E+03
   1  5 10  1.99359E-04  3.95639E+03
   1  6  6  1.35157E-04  3.94698E+03
   1  6  7  2.93344E-03  3.94739E+03
   1  6 10  8.76773E-05  3.97554E+03
   1  7  7  1.69495E-03  3.94780E+03
   1  7 10  1.68035E-04  3.97595E+03
   2  3  0  9.42443E-05  7.50700E+01
   2  4  0  2.78501E-04  7.89100E+01
   2  6  0  2.04061E-04  4.15430E+02
   2  7  0  3.06021E-04  4.15800E+02
   2  3 10  1.42567E-02  6.96200E+01
   2  4 10  2.73691E-02  7.34600E+01
   2  5  5  1.31208E-02  3.27790E+02
   2  5  6  2.28754E-02  3.46940E+02
   2  5  7  4.52192E-02  3.47350E+02
   2  5 10  2.68682E-03  3.75500E+02
   2  6  6  5.21721E-04  3.66090E+02
   2  6  7  2.67985E-04  3.66500E+02
   2  6 10  2.04550E-03  3.94650E+02
   2  7  7  1.23299E-03  3.66910E+02
   2  7 10  4.04393E-03  3.95060E+02
   3  5  0  1.19571E-03  3.06430E+02
   3  7  0  8.74676E-07  3.27120E+02
   3 10  0  2.53632E-05  3.53590E+02
   3  5  5  1.08556E-02  2.52720E+02
   3  5  6  1.98917E-01  2.71870E+02
   3  5  7  1.45844E-02  2.72280E+02
   3  5 10  2.13424E-03  3.00430E+02
   3  6  6  1.61409E-01  2.91020E+02
   3  6  7  5.70643E-01  2.91430E+02
   3  6 10  2.29240E-02  3.19580E+02
   3  7  7  1.58751E-02  2.91840E+02
   3  7 10  1.43604E-03  3.19990E+02
   4  5  0  1.13130E-03  3.02690E+02
   4  6  0  4.05972E-07  3.23340E+02
   4  7  0  3.98812E-07  3.23710E+02
   4 10  0  2.39671E-05  3.49750E+02
   4  5  5  1.06175E-02  2.48880E+02
   4  5  6  6.94101E-03  2.68030E+02
   4  5  7  2.03179E-01  2.68440E+02
   4  5 10  2.10301E-03  2.96590E+02
   4  6  6  2.69658E-03  2.87180E+02
   4  6  7  2.95034E-01  2.87590E+02
   4  6 10  6.70949E-04  3.15740E+02
   4  7  7  4.53602E-01  2.88000E+02
   4  7 10  2.39998E-02  3.16150E+02
   2 30 30  8.65477E-01  3.53086E+01
 *** RELAX:  Z = 25,  no. of shells = 10,  no. of transitions = 147
   1 1s1/2 2  6.54400E+03  3.45189E-02
   2 2s1/2 2  7.55000E+02  1.31920E-01
   3 2p1/2 2  6.56000E+02  6.73678E-02
   4 2p3/2 4  6.45000E+02  6.80680E-02
   5 3s1/2 2  8.90000E+01  3.69361E-01
   6 3p1/2 2  5.50000E+01  2.32855E-01
   7 3p3/2 4  5.30000E+01  2.35040E-01
   8 3d3/2 4  9.00000E+00  2.15446E-01
   9 3d5/2 1  9.00000E+00  2.16401E-01
  10 4s1/2 2  7.43400E+00  1.57584E+00
   1  3  0  9.17726E-02  5.88769E+03
   1  4  0  1.79949E-01  5.89880E+03
   1  6  0  1.09360E-02  6.49059E+03
   1  7  0  2.15229E-02  6.49059E+03
   1  8  0  3.85518E-06  6.53536E+03
   1  9  0  5.64148E-06  6.53536E+03
   1  2  2  4.67138E-02  4.97796E+03
   1  2  3  5.17916E-02  5.08146E+03
   1  2  4  9.52207E-02  5.09221E+03
   1  2  5  1.24821E-02  5.65185E+03
   1  2  6  6.59506E-03  5.68234E+03
   1  2  7  1.20614E-02  5.68365E+03
   1  2  8  1.52466E-04  5.73258E+03
   1  2  9  2.11912E-04  5.73271E+03
   1  2 10  1.14999E-03  5.73718E+03
   1  3  3  9.33686E-03  5.18496E+03
   1  3  4  2.24948E-01  5.19571E+03
   1  3  5  5.91526E-03  5.75535E+03
   1  3  6  2.24573E-03  5.78584E+03
   1  3  7  2.47828E-02  5.78715E+03
   1  3  8  2.11909E-04  5.83608E+03
   1  3  9  7.93352E-04  5.83621E+03
   1  3 10  5.34934E-04  5.84068E+03
   1  4  4  1.25736E-01  5.20646E+03
   1  4  5  1.09189E-02  5.76610E+03
   1  4  6  2.47718E-02  5.79659E+03
   1  4  7  2.81289E-02  5.79790E+03
   1  4  8  9.84510E-04  5.84683E+03
   1  4  9  9.71635E-04  5.84696E+03
   1  4 10  9.87080E-04  5.85143E+03
   1  5  5  8.24386E-04  6.32574E+03
   1  5  6  7.57183E-04  6.35623E+03
   1  5  7  1.38769E-03  6.35754E+03
   1  5  8  1.55054E-05  6.40647E+03
   1  5  9  2.32585E-05  6.40660E+03
   1  5 10  1.52465E-04  6.41107E+03
   1  6  6  1.30400E-04  6.38672E+03
   1  6  7  2.77500E-03  6.38803E+03
   1  6  8  1.82564E-05  6.43696E+03
   1  6  9  7.30232E-05  6.43709E+03
   1  6 10  6.78099E-05  6.44156E+03
   1  7  7  1.61665E-03  6.38934E+03
   1  7  8  9.29085E-05  6.43827E+03
   1  7  9  9.02568E-05  6.43840E+03
   1  7 10  1.30078E-04  6.44287E+03
   1  8  9  2.58429E-06  6.48733E+03
   1  8 10  2.58429E-06  6.49180E+03
   1  9 10  2.58419E-06  6.49193E+03
   2  3  0  3.44712E-05  1.03500E+02
   2  4  0  1.28601E-04  1.14250E+02
   2  6  0  4.87964E-04  7.21200E+02
   2  7  0  7.08545E-04  7.21200E+02
   2  8  0  1.26141E-06  7.68340E+02
   2  9  0  1.76201E-06  7.69360E+02
   2  3  8  3.86253E-02  9.16500E+01
   2  3  9  6.34333E-02  9.17800E+01
   2  3 10  6.97311E-03  9.62500E+01
   2  4  6  6.79573E-02  5.21600E+01
   2  4  7  1.55173E-01  5.34700E+01
   2  4  8  9.02735E-02  1.02400E+02
   2  4  9  1.27740E-01  1.02530E+02
   2  4 10  1.29083E-02  1.07000E+02
   2  5  5  1.51766E-02  5.81310E+02
   2  5  6  2.72907E-02  6.11800E+02
   2  5  7  5.35293E-02  6.13110E+02
   2  5  8  1.37094E-02  6.62040E+02
   2  5  9  2.02584E-02  6.62170E+02
   2  5 10  2.49655E-03  6.66640E+02
   2  6  6  4.48180E-04  6.42290E+02
   2  6  7  6.36606E-04  6.43600E+02
   2  6  8  1.95994E-04  6.92530E+02
   2  6  9  3.62961E-03  6.92660E+02
   2  6 10  1.91586E-03  6.97130E+02
   2  7  7  1.25022E-03  6.44910E+02
   2  7  8  3.74630E-03  6.93840E+02
   2  7  9  2.72895E-03  6.93970E+02
   2  7 10  3.60061E-03  6.98440E+02
   2  8  8  1.68704E-04  7.42770E+02
   2  8  9  8.95871E-03  7.42900E+02
   2  8 10  9.67657E-04  7.47370E+02
   2  9  9  2.40642E-03  7.43030E+02
   2  9 10  1.39661E-03  7.47500E+02
   3  5  0  3.57611E-03  5.67420E+02
   3  7  0  7.00762E-06  6.06500E+02
   3  8  0  8.77713E-04  6.48800E+02
   3 10  0  6.97162E-05  6.55720E+02
   3  5  5  6.61693E-03  4.77810E+02
   3  5  6  1.20709E-01  5.08300E+02
   3  5  7  9.64520E-03  5.09610E+02
   3  5  8  3.57326E-03  5.58540E+02
   3  5  9  5.88520E-03  5.58670E+02
   3  5 10  1.05091E-03  5.63140E+02
   3  6  6  1.02396E-01  5.38790E+02
   3  6  7  3.56396E-01  5.40100E+02
   3  6  8  6.06602E-02  5.89030E+02
   3  6  9  1.18320E-01  5.89160E+02
   3  6 10  1.11894E-02  5.93630E+02
   3  7  7  9.88714E-03  5.41410E+02
   3  7  8  6.98718E-02  5.90340E+02
   3  7  9  1.07431E-02  5.90470E+02
   3  7 10  7.86291E-04  5.94940E+02
   3  8  8  1.83293E-02  6.39270E+02
   3  8  9  8.38539E-02  6.39400E+02
   3  8 10  2.77108E-04  6.43870E+02
   3  9  9  4.76450E-03  6.39530E+02
   3  9 10  5.13814E-04  6.44000E+02
   4  5  0  3.35628E-03  5.56220E+02
   4  6  0  3.41908E-06  5.87300E+02
   4  7  0  3.33848E-06  5.94600E+02
   4  8  0  7.06575E-05  6.37440E+02
   4  9  0  7.98014E-04  6.37440E+02
   4 10  0  6.55745E-05  6.44970E+02
   4  5  5  6.20886E-03  4.67060E+02
   4  5  6  4.22301E-03  4.97550E+02
   4  5  7  1.16349E-01  4.98860E+02
   4  5  8  3.79266E-03  5.47790E+02
   4  5  9  5.40607E-03  5.47920E+02
   4  5 10  9.89484E-04  5.52390E+02
   4  6  6  1.62236E-03  5.28040E+02
   4  6  7  1.74618E-01  5.29350E+02
   4  6  8  3.48065E-03  5.78280E+02
   4  6  9  3.40844E-02  5.78410E+02
   4  6 10  3.43045E-04  5.82880E+02
   4  7  7  2.59646E-01  5.30660E+02
   4  7  8  8.35044E-02  5.79590E+02
   4  7  9  1.24363E-01  5.79720E+02
   4  7 10  1.07536E-02  5.84190E+02
   4  8  8  4.87347E-03  6.28520E+02
   4  8  9  9.92986E-02  6.28650E+02
   4  8 10  4.77198E-04  6.33120E+02
   4  9  9  6.10517E-02  6.28780E+02
   4  9 10  6.17804E-04  6.33250E+02
   5  8  8  6.32082E-04  6.88800E+01
   5  8  9  1.85482E-02  6.90100E+01
   5  8 10  2.34369E-02  7.34800E+01
   5  9  9  4.80240E-03  6.91400E+01
   5  9 10  3.48438E-02  7.36100E+01
   6  8  0  1.89409E-06  5.02400E+01
   6 10  0  1.66869E-07  5.48400E+01
   7 10  0  5.15039E-08  5.35300E+01
   2 30 30  2.71042E-01  3.14926E+01
   3 30  0  1.37650E-10  1.07500E+01
   5 30  0  1.09171E-05  3.14025E+01
   5 30 30  9.17725E-01  2.06029E+01
   6 30 30  9.99998E-01  3.89837E+01
   7 30  0  1.70041E-06  4.90471E+01
   7 30 30  9.99999E-01  3.77629E+01
 *** RELAX:  Z = 26,  no. of shells = 10,  no. of transitions = 148
   1 1s1/2 2  7.11700E+03  3.31215E-02
   2 2s1/2 2  8.51000E+02  1.25935E-01
   3 2p1/2 2  7.26000E+02  6.41844E-02
   4 2p3/2 4  7.13000E+02  6.49062E-02
   5 3s1/2 2  9.80000E+01  3.51458E-01
   6 3p1/2 2  6.10000E+01  2.20645E-01
   7 3p3/2 4  5.90000E+01  2.22909E-01
   8 3d3/2 4  9.00000E+00  2.01788E-01
   9 3d5/2 2  9.00000E+00  2.02832E-01
  10 4s1/2 2  7.87000E+00  1.53122E+00
   1  3  0  1.01391E-01  6.39103E+03
   1  4  0  1.98621E-01  6.40401E+03
   1  6  0  1.22111E-02  7.05818E+03
   1  7  0  2.40042E-02  7.05818E+03
   1  8  0  6.00794E-06  7.10826E+03
   1  9  0  8.77226E-06  7.10826E+03
   1  2  2  4.47039E-02  5.39748E+03
   1  2  3  4.96309E-02  5.50689E+03
   1  2  4  9.05528E-02  5.51975E+03
   1  2  5  1.20010E-02  6.13943E+03
   1  2  6  6.37861E-03  6.17240E+03
   1  2  7  1.15700E-02  6.17399E+03
   1  2  8  1.85335E-04  6.22753E+03
   1  2  9  2.57546E-04  6.22770E+03
   1  2 10  1.06145E-03  6.23291E+03
   1  3  3  8.91045E-03  5.61630E+03
   1  3  4  2.13819E-01  5.62916E+03
   1  3  5  5.68040E-03  6.24884E+03
   1  3  6  2.15909E-03  6.28181E+03
   1  3  7  2.36911E-02  6.28340E+03
   1  3  8  2.57540E-04  6.33694E+03
   1  3  9  9.60385E-04  6.33711E+03
   1  3 10  4.93427E-04  6.34232E+03
   1  4  4  1.19207E-01  5.64202E+03
   1  4  5  1.04085E-02  6.26170E+03
   1  4  6  2.36893E-02  6.29467E+03
   1  4  7  2.68353E-02  6.29626E+03
   1  4  8  1.19389E-03  6.34980E+03
   1  4  9  1.17463E-03  6.34997E+03
   1  4 10  9.02593E-04  6.35518E+03
   1  5  5  8.02277E-04  6.88138E+03
   1  5  6  7.39263E-04  6.91435E+03
   1  5  7  1.34525E-03  6.91594E+03
   1  5  8  1.93914E-05  6.96948E+03
   1  5  9  2.66629E-05  6.96965E+03
   1  5 10  1.40581E-04  6.97486E+03
   1  6  6  1.28144E-04  6.94732E+03
   1  6  7  2.71062E-03  6.94891E+03
   1  6  8  2.21776E-05  7.00245E+03
   1  6  9  8.87081E-05  7.00262E+03
   1  6 10  6.40678E-05  7.00783E+03
   1  7  7  1.58655E-03  6.95050E+03
   1  7  8  1.16223E-04  7.00404E+03
   1  7  9  1.11167E-04  7.00421E+03
   1  7 10  1.21269E-04  7.00942E+03
   1  8  9  3.85858E-06  7.05775E+03
   1  8 10  3.85858E-06  7.06296E+03
   1  9 10  3.51272E-06  7.06313E+03
   2  3  0  2.87212E-05  1.09410E+02
   2  4  0  1.12411E-04  1.22270E+02
   2  6  0  5.33553E-04  7.92200E+02
   2  7  0  7.92105E-04  7.92200E+02
   2  8  0  1.62101E-06  8.44520E+02
   2  9  0  2.20171E-06  8.45440E+02
   2  3  8  4.09703E-02  9.65000E+01
   2  3  9  6.68427E-02  9.66700E+01
   2  3 10  6.19976E-03  1.01880E+02
   2  4  6  6.47652E-02  5.42300E+01
   2  4  7  1.45310E-01  5.58200E+01
   2  4  8  9.68238E-02  1.09360E+02
   2  4  9  1.37175E-01  1.09530E+02
   2  4 10  1.13749E-02  1.14740E+02
   2  5  5  1.42253E-02  6.40940E+02
   2  5  6  2.56412E-02  6.73910E+02
   2  5  7  5.02067E-02  6.75500E+02
   2  5  8  1.57957E-02  7.29040E+02
   2  5  9  2.33060E-02  7.29210E+02
   2  5 10  2.24577E-03  7.34420E+02
   2  6  6  4.09652E-04  7.06880E+02
   2  6  7  6.68243E-04  7.08470E+02
   2  6  8  2.32428E-04  7.62010E+02
   2  6  9  4.40741E-03  7.62180E+02
   2  6 10  1.77081E-03  7.67390E+02
   2  7  7  1.17810E-03  7.10060E+02
   2  7  8  4.46042E-03  7.63600E+02
   2  7  9  3.23254E-03  7.63770E+02
   2  7 10  3.28901E-03  7.68980E+02
   2  8  8  2.58444E-04  8.17140E+02
   2  8  9  1.35249E-02  8.17310E+02
   2  8 10  1.10876E-03  8.22520E+02
   2  9  9  3.53869E-03  8.17480E+02
   2  9 10  1.55434E-03  8.22690E+02
   3  5  0  4.03768E-03  6.27800E+02
   3  7  0  9.18115E-06  6.70400E+02
   3  8  0  1.40199E-03  7.18320E+02
   3 10  0  8.27386E-05  7.26020E+02
   3  5  5  5.72017E-03  5.31530E+02
   3  5  6  1.04744E-01  5.64500E+02
   3  5  7  8.48542E-03  5.66090E+02
   3  5  8  3.52272E-03  6.19630E+02
   3  5  9  6.29489E-03  6.19800E+02
   3  5 10  8.72234E-04  6.25010E+02
   3  6  6  8.91640E-02  5.97470E+02
   3  6  7  3.09321E-01  5.99060E+02
   3  6  8  6.45901E-02  6.52600E+02
   3  6  9  1.25120E-01  6.52770E+02
   3  6 10  9.30123E-03  6.57980E+02
   3  7  7  8.61400E-03  6.00650E+02
   3  7  8  7.55051E-02  6.54190E+02
   3  7  9  1.14600E-02  6.54360E+02
   3  7 10  6.69397E-04  6.59570E+02
   3  8  8  2.94353E-02  7.07730E+02
   3  8  9  1.34354E-01  7.07900E+02
   3  8 10  3.10265E-04  7.13110E+02
   3  9  9  6.45717E-03  7.08070E+02
   3  9 10  5.27395E-04  7.13280E+02
   4  5  0  3.75953E-03  6.15300E+02
   4  6  0  4.56623E-06  6.50100E+02
   4  7  0  4.45063E-06  6.56800E+02
   4  8  0  1.14991E-04  7.04800E+02
   4  9  0  1.28521E-03  7.04800E+02
   4 10  0  7.69576E-05  7.13160E+02
   4  5  5  5.47610E-03  5.18670E+02
   4  5  6  3.75614E-03  5.51640E+02
   4  5  7  1.02560E-01  5.53230E+02
   4  5  8  4.09120E-03  6.06770E+02
   4  5  9  5.60270E-03  6.06940E+02
   4  5 10  8.34691E-04  6.12150E+02
   4  6  6  1.43545E-03  5.84610E+02
   4  6  7  1.55075E-01  5.86200E+02
   4  6  8  3.86376E-03  6.39740E+02
   4  6  9  3.74865E-02  6.39910E+02
   4  6 10  2.90883E-04  6.45120E+02
   4  7  7  2.29412E-01  5.87790E+02
   4  7  8  9.02988E-02  6.41330E+02
   4  7  9  1.34973E-01  6.41500E+02
   4  7 10  9.09931E-03  6.46710E+02
   4  8  8  5.93307E-03  6.94870E+02
   4  8  9  1.20726E-01  6.95040E+02
   4  8 10  4.31648E-04  7.00250E+02
   4  9  9  8.28033E-02  6.95210E+02
   4  9 10  6.04329E-04  7.00420E+02
   5  8  8  1.07986E-03  7.51900E+01
   5  8  9  2.33924E-02  7.53600E+01
   5  8 10  2.57210E-02  8.05700E+01
   5  9  9  6.79262E-03  7.55300E+01
   5  9 10  3.82746E-02  8.07400E+01
   6  8  0  3.89240E-06  5.51300E+01
   6 10  0  3.74790E-07  6.05100E+01
   7  8  0  3.49259E-07  5.35400E+01
   7  9  0  3.18269E-06  5.37100E+01
   7 10  0  1.15860E-07  5.89200E+01
   2 30 30  2.58014E-01  3.13991E+01
   3 30  0  2.04719E-10  1.28600E+01
   5 30  0  1.44183E-05  3.40828E+01
   5 30 30  9.04726E-01  2.23033E+01
   6 30 30  9.99996E-01  4.28322E+01
   7 30 30  9.99996E-01  4.13518E+01
 *** Electron scaled bremss x-section,  ZEQ = 1.35136E+01,  NDATA =  57
 1.00E+03 5.54371E+00 5.60479E+00 5.66372E+00 5.71889E+00 5.77067E+00
          5.86605E+00 5.94973E+00 6.02210E+00 6.08401E+00 6.13749E+00
          6.18539E+00 6.22869E+00 6.26823E+00 6.30519E+00 6.34191E+00
          6.38039E+00 6.42039E+00 6.46081E+00 6.50024E+00 6.53766E+00
          6.57120E+00 6.58648E+00 6.60344E+00 6.61941E+00 6.63784E+00
          6.64274E+00 6.64674E+00 6.64723E+00 6.64766E+00 6.64770E+00
          6.64776E+00 6.64777E+00                                     5.372E+00
 1.50E+03 6.67196E+00 6.73137E+00 6.78811E+00 6.84020E+00 6.88817E+00
          6.97445E+00 7.04658E+00 7.10475E+00 7.14998E+00 7.18457E+00
          7.21172E+00 7.23237E+00 7.24741E+00 7.25829E+00 7.26838E+00
          7.28062E+00 7.29502E+00 7.31077E+00 7.32762E+00 7.34774E+00
          7.37277E+00 7.38541E+00 7.39380E+00 7.39627E+00 7.40261E+00
          7.40576E+00 7.40645E+00 7.40632E+00 7.40651E+00 7.40653E+00
          7.40669E+00 7.40657E+00                                     6.210E+00
 2.00E+03 7.53107E+00 7.59607E+00 7.65659E+00 7.70926E+00 7.75505E+00
          7.83115E+00 7.88698E+00 7.92545E+00 7.94865E+00 7.95990E+00
          7.96353E+00 7.96046E+00 7.95121E+00 7.93739E+00 7.92335E+00
          7.91306E+00 7.90669E+00 7.90337E+00 7.90282E+00 7.90750E+00
          7.91830E+00 7.92360E+00 7.92489E+00 7.92170E+00 7.92012E+00
          7.92088E+00 7.92006E+00 7.91978E+00 7.91978E+00 7.91978E+00
          7.91988E+00 7.91979E+00                                     6.821E+00
 3.00E+03 8.80442E+00 8.88561E+00 8.95790E+00 9.01455E+00 9.05754E+00
          9.11367E+00 9.13473E+00 9.13084E+00 9.10665E+00 9.06792E+00
          9.02198E+00 8.97131E+00 8.91774E+00 8.86373E+00 8.81226E+00
          8.76626E+00 8.72610E+00 8.69095E+00 8.66015E+00 8.63461E+00
          8.61553E+00 8.60782E+00 8.59805E+00 8.58758E+00 8.57637E+00
          8.57352E+00 8.57103E+00 8.57069E+00 8.57046E+00 8.57043E+00
          8.57044E+00 8.57040E+00                                     7.682E+00
 4.00E+03 9.74424E+00 9.83929E+00 9.92081E+00 9.97863E+00 1.00158E+01
          1.00464E+01 1.00291E+01 9.98294E+00 9.91535E+00 9.83390E+00
          9.74795E+00 9.65999E+00 9.57107E+00 9.48313E+00 9.39838E+00
          9.31952E+00 9.24755E+00 9.18304E+00 9.12654E+00 9.07823E+00
          9.03689E+00 9.01756E+00 8.99777E+00 8.98114E+00 8.96307E+00
          8.95854E+00 8.95487E+00 8.95439E+00 8.95404E+00 8.95398E+00
          8.95395E+00 8.95396E+00                                     8.270E+00
 5.00E+03 1.04883E+01 1.05877E+01 1.06711E+01 1.07263E+01 1.07570E+01
          1.07661E+01 1.07175E+01 1.06338E+01 1.05252E+01 1.04031E+01
          1.02805E+01 1.01594E+01 1.00383E+01 9.91834E+00 9.80433E+00
          9.70094E+00 9.60771E+00 9.52110E+00 9.43897E+00 9.36627E+00
          9.30598E+00 9.27818E+00 9.25012E+00 9.22733E+00 9.20426E+00
          9.19846E+00 9.19384E+00 9.19326E+00 9.19280E+00 9.19274E+00
          9.19270E+00 9.19270E+00                                     8.702E+00
 6.00E+03 1.11036E+01 1.12017E+01 1.12821E+01 1.13313E+01 1.13536E+01
          1.13407E+01 1.12633E+01 1.11455E+01 1.09997E+01 1.08404E+01
          1.06840E+01 1.05329E+01 1.03846E+01 1.02397E+01 1.01027E+01
          9.97792E+00 9.86437E+00 9.75738E+00 9.65398E+00 9.56038E+00
          9.48209E+00 9.44712E+00 9.41206E+00 9.38381E+00 9.35638E+00
          9.34961E+00 9.34414E+00 9.34347E+00 9.34292E+00 9.34284E+00
          9.34281E+00 9.34282E+00                                     9.031E+00
 8.00E+03 1.20639E+01 1.21709E+01 1.22527E+01 1.22903E+01 1.22902E+01
          1.22141E+01 1.20623E+01 1.18755E+01 1.16688E+01 1.14555E+01
          1.12506E+01 1.10551E+01 1.08646E+01 1.06786E+01 1.05017E+01
          1.03384E+01 1.01879E+01 1.00459E+01 9.90963E+00 9.78373E+00
          9.67408E+00 9.62540E+00 9.57834E+00 9.54205E+00 9.50655E+00
          9.49799E+00 9.49112E+00 9.49024E+00 9.48957E+00 9.48947E+00
          9.48943E+00 9.48943E+00                                     9.499E+00
 1.00E+04 1.28119E+01 1.29093E+01 1.29779E+01 1.29962E+01 1.29722E+01
          1.28414E+01 1.26303E+01 1.23865E+01 1.21266E+01 1.18650E+01
          1.16171E+01 1.13833E+01 1.11585E+01 1.09409E+01 1.07346E+01
          1.05429E+01 1.03647E+01 1.01950E+01 1.00307E+01 9.87750E+00
          9.74277E+00 9.68279E+00 9.62557E+00 9.58226E+00 9.53993E+00
          9.52977E+00 9.52167E+00 9.52061E+00 9.51984E+00 9.51973E+00
          9.51966E+00 9.51964E+00                                     9.810E+00
 1.50E+04 1.41417E+01 1.42099E+01 1.42410E+01 1.42075E+01 1.41213E+01
          1.38536E+01 1.35037E+01 1.31380E+01 1.27743E+01 1.24235E+01
          1.20974E+01 1.17930E+01 1.15050E+01 1.12285E+01 1.09673E+01
