 PENELOPE (v. 2011)  Material data file ...............
 Material: ZnO                                                           
 Mass density = 5.21000000E+00 g/cm**3
 Number of elements in the molecule =  2
   atomic number = 30,  atoms/molecule = 9.99838406E-01
   atomic number =  8,  atoms/molecule = 1.00000000E+00
 Mean excitation energy = 2.53891883E+02 eV
 Number of oscillators = 11 (E/P inelastic model)
   1  1.99967681E+00  0.00000000E+00  1.03104318E+01   0  30
   2  1.39983841E+01  1.21200693E+01  3.84116913E+01   0   3
   3  2.00000000E+00  2.84800000E+01  8.59001287E+01   8   2
   4  3.99935362E+00  9.10000000E+01  2.73408078E+02  30   7
   5  1.99967681E+00  9.40000000E+01  2.82279209E+02  30   6
   6  1.99967681E+00  1.41000000E+02  4.23314191E+02  30   5
   7  2.00000000E+00  5.38000000E+02  1.61490134E+03   8   1
   8  3.99935362E+00  1.02400000E+03  3.07369686E+03  30   4
   9  1.99967681E+00  1.04700000E+03  3.14272267E+03  30   3
  10  1.99967681E+00  1.19800000E+03  3.59596807E+03  30   2
  11  1.99967681E+00  9.66300000E+03  2.90047961E+04  30   1
 Number of shells = 11 (Compton IA model)
   1  1.99967681E+00  0.00000000E+00  1.28952416E+00   0  30
   2  1.39983841E+01  1.21200693E+01  2.15720486E-01   0  30
   3  2.00000000E+00  2.84800000E+01  5.79000000E-01   8   2
   4  3.99935362E+00  9.10000000E+01  1.86000000E-01  30   7
   5  1.99967681E+00  9.40000000E+01  1.86000000E-01  30   6
   6  1.99967681E+00  1.41000000E+02  2.99000000E-01  30   5
   7  2.00000000E+00  5.38000000E+02  1.13000000E-01   8   1
   8  3.99935362E+00  1.02400000E+03  5.49000000E-02  30   4
   9  1.99967681E+00  1.04700000E+03  5.49000000E-02  30   3
  10  1.99967681E+00  1.19800000E+03  1.08000000E-01  30   2
  11  1.99967681E+00  9.66300000E+03  2.90000000E-02  30   1
 *** RELAX:  Z = 30,  no. of shells = 10,  no. of transitions = 165
   1 1s1/2 2  9.66300E+03
   2 2s1/2 2  1.19800E+03
   3 2p1/2 2  1.04700E+03
   4 2p3/2 4  1.02400E+03
   5 3s1/2 2  1.41000E+02
   6 3p1/2 2  9.40000E+01
   7 3p3/2 4  9.10000E+01
   8 3d3/2 4  1.20000E+01
   9 3d5/2 6  1.12000E+01
  10 4s1/2 2  9.39400E+00
   1  3  0  1.40620E-01  8.61582E+03
   1  4  0  2.73809E-01  8.63891E+03
   1  6  0  1.73890E-02  9.57203E+03
   1  7  0  3.39969E-02  9.57203E+03
   1  8  0  2.35079E-05  9.64990E+03
   1  9  0  3.39889E-05  9.64990E+03
   1  2  2  3.67202E-02  7.25360E+03
   1  2  3  4.08263E-02  7.38750E+03
   1  2  4  7.19520E-02  7.41200E+03
   1  2  5  9.96991E-03  8.30057E+03
   1  2  6  5.38738E-03  8.34426E+03
   1  2  7  9.40412E-03  8.34741E+03
   1  2  8  2.96221E-04  8.42115E+03
   1  2  9  3.99711E-04  8.42154E+03
   1  2 10  7.63732E-04  8.42939E+03
   1  3  3  7.18740E-03  7.52140E+03
   1  3  4  1.69423E-01  7.54590E+03
   1  3  5  4.68792E-03  8.43447E+03
   1  3  6  1.77372E-03  8.47816E+03
   1  3  7  1.90649E-02  8.48131E+03
   1  3  8  4.08651E-04  8.55505E+03
   1  3  9  1.50252E-03  8.55544E+03
   1  3 10  3.51539E-04  8.56329E+03
   1  4  4  9.33923E-02  7.57040E+03
   1  4  5  8.29767E-03  8.45897E+03
   1  4  6  1.90934E-02  8.50266E+03
   1  4  7  2.13838E-02  8.50581E+03
   1  4  8  1.86474E-03  8.57955E+03
   1  4  9  1.81482E-03  8.57994E+03
   1  4 10  6.22793E-04  8.58779E+03
   1  5  5  7.23926E-04  9.34754E+03
   1  5  6  6.75507E-04  9.39123E+03
   1  5  7  1.18265E-03  9.39438E+03
   1  5  8  3.48394E-05  9.46812E+03
   1  5  9  4.64528E-05  9.46851E+03
   1  5 10  1.10321E-04  9.47636E+03
   1  6  6  1.17498E-04  9.43492E+03
   1  6  7  2.41974E-03  9.43807E+03
   1  6  8  3.98312E-05  9.51181E+03
   1  6  9  1.53346E-04  9.51220E+03
   1  6 10  5.17798E-05  9.52005E+03
   1  7  7  1.45467E-03  9.44122E+03
   1  7  8  2.05688E-04  9.51496E+03
   1  7  9  1.95088E-04  9.51535E+03
   1  7 10  9.75440E-05  9.52320E+03
   1  8  9  1.34903E-05  9.58909E+03
   1  8 10  2.24862E-06  9.59694E+03
   1  9  9  5.37849E-06  9.58948E+03
   1  9 10  5.37849E-06  9.59733E+03
   1 10 10  3.56899E-06  9.60518E+03
   2  3  0  1.74001E-05  1.33900E+02
   2  4  0  8.30426E-05  1.58400E+02
   2  6  0  7.38615E-04  1.10700E+03
   2  7  0  1.17501E-03  1.10700E+03
   2  8  0  2.89562E-06  1.18570E+03
   2  9  0  3.91643E-06  1.18610E+03
   2  3  8  4.63817E-02  1.17050E+02
   2  3  9  7.44682E-02  1.17440E+02
   2  3 10  4.45393E-03  1.25290E+02
   2  4  6  5.79122E-02  6.46600E+01
   2  4  7  1.23579E-01  6.78100E+01
   2  4  8  1.16279E-01  1.41550E+02
   2  4  9  1.65355E-01  1.41940E+02
   2  4 10  7.83086E-03  1.49790E+02
   2  5  5  1.04028E-02  9.09540E+02
   2  5  6  1.90072E-02  9.53230E+02
   2  5  7  3.68897E-02  9.56380E+02
   2  5  8  2.10136E-02  1.03012E+03
   2  5  9  3.07792E-02  1.03051E+03
   2  5 10  1.42819E-03  1.03836E+03
   2  6  6  2.57527E-04  9.96920E+02
   2  6  7  6.47584E-04  1.00007E+03
   2  6  8  3.24333E-04  1.07381E+03
   2  6  9  6.39833E-03  1.07420E+03
   2  6 10  1.16589E-03  1.08205E+03
   2  7  7  9.60655E-04  1.00322E+03
   2  7  8  6.84507E-03  1.07696E+03
   2  7  9  4.87849E-03  1.07735E+03
   2  7 10  2.36888E-03  1.08520E+03
   2  8  8  6.36840E-04  1.15070E+03
   2  8  9  3.17905E-02  1.15109E+03
   2  8 10  1.20887E-03  1.15894E+03
   2  9  9  8.89946E-03  1.15148E+03
   2  9 10  1.80261E-03  1.15933E+03
   2 10 10  4.78573E-05  1.16718E+03
   3  5  0  4.61199E-03  9.06300E+02
   3  7  0  1.80819E-05  9.57400E+02
   3  8  0  5.87348E-03  1.03465E+03
   3 10  0  1.30420E-04  1.04189E+03
   3  5  5  3.29825E-03  7.75640E+02
   3  5  6  6.14430E-02  8.19330E+02
   3  5  7  5.22423E-03  8.22480E+02
   3  5  8  2.91704E-03  8.96220E+02
   3  5  9  6.72092E-03  8.96610E+02
   3  5 10  4.37367E-04  9.04460E+02
   3  6  6  5.36229E-02  8.63020E+02
   3  6  7  1.83350E-01  8.66170E+02
   3  6  8  6.88269E-02  9.39910E+02
   3  6  9  1.30427E-01  9.40300E+02
   3  6 10  4.72271E-03  9.48150E+02
   3  7  7  5.11146E-03  8.69320E+02
   3  7  8  8.27844E-02  9.43060E+02
   3  7  9  1.21167E-02  9.43450E+02
   3  7 10  3.57096E-04  9.51300E+02
   3  8  8  6.07200E-02  1.01680E+03
   3  8  9  2.74684E-01  1.01719E+03
   3  8 10  2.34621E-04  1.02504E+03
   3  9  9  1.27114E-02  1.01758E+03
   3  9 10  4.85515E-04  1.02543E+03
   3 10 10  1.60500E-05  1.03328E+03
   4  5  0  4.34963E-03  8.84300E+02
   4  6  0  9.21506E-06  9.31700E+02
   4  7  0  8.90995E-06  9.34500E+02
   4  8  0  4.96303E-04  1.01177E+03
   4  9  0  5.25973E-03  1.01177E+03
   4 10  0  1.13281E-04  1.01739E+03
   4  5  5  3.41111E-03  7.51140E+02
   4  5  6  2.40931E-03  7.94830E+02
   4  5  7  6.38932E-02  7.97980E+02
   4  5  8  4.57611E-03  8.71720E+02
   4  5  9  5.48252E-03  8.72110E+02
   4  5 10  4.49251E-04  8.79960E+02
   4  6  6  9.06422E-04  8.38520E+02
   4  6  7  9.79730E-02  8.41670E+02
   4  6  8  4.58386E-03  9.15410E+02
   4  6  9  4.34646E-02  9.15800E+02
   4  6 10  1.62995E-04  9.23650E+02
   4  7  7  1.43650E-01  8.44820E+02
   4  7  8  1.01080E-01  9.18560E+02
   4  7  9  1.52200E-01  9.18950E+02
   4  7 10  4.88211E-03  9.26800E+02
   4  8  8  1.03408E-02  9.92300E+02
   4  8  9  2.08677E-01  9.92690E+02
   4  8 10  3.33954E-04  1.00054E+03
   4  9  9  1.40861E-01  9.93080E+02
   4  9 10  4.09504E-04  1.00093E+03
   4 10 10  1.59031E-05  1.00878E+03
   5  8  8  4.12596E-03  1.03730E+02
   5  8  9  4.48130E-02  1.04120E+02
   5  8 10  3.32219E-02  1.11970E+02
   5  9  9  1.80365E-02  1.04510E+02
   5  9 10  5.22844E-02  1.12360E+02
   5 10 10  7.24709E-04  1.20210E+02
   6  8  0  2.88079E-05  7.68900E+01
   6 10  0  3.87618E-06  8.51300E+01
   6  8  8  1.49923E-01  6.00400E+01
   6  8  9  7.74954E-01  6.04300E+01
   6  8 10  4.38691E-02  6.82800E+01
   6  9  9  2.27158E-02  6.08200E+01
   6  9 10  8.49506E-03  6.86700E+01
   6 10 10  1.08770E-05  7.65200E+01
   7  8  0  2.62310E-06  7.37400E+01
   7  9  0  2.40950E-05  7.41300E+01
   7 10  0  1.82330E-06  8.19800E+01
   7  8  8  2.36088E-02  5.68900E+01
   7  8  9  5.37047E-01  5.72800E+01
   7  8 10  9.89369E-03  6.51300E+01
   7  9  9  3.81722E-01  5.76700E+01
   7  9 10  4.76979E-02  6.55200E+01
   7 10 10  1.48540E-06  7.33700E+01
   2 30 30  2.13965E-01  3.23196E+01
   3 30  0  6.48668E-10  2.45000E+01
   3 30 30  1.91549E-02  1.58900E+01
   5 30  0  3.41563E-05  4.59412E+01
   5 30 30  8.46759E-01  3.04671E+01
 *** RELAX:  Z =  8,  no. of shells =  4,  no. of transitions =   8
   1 1s1/2 2  5.38000E+02
   2 2s1/2 2  2.84800E+01
   3 2p1/2 2  1.36200E+01
   4 2p3/2 2  1.36200E+01
   1  3  0  1.90768E-03  5.23090E+02
   1  4  0  3.80027E-03  5.23130E+02
   1  2  2  1.78644E-01  4.78820E+02
   1  2  3  1.16224E-01  4.93860E+02
   1  2  4  2.30418E-01  4.93900E+02
   1  3  3  1.10822E-02  5.08900E+02
   1  3  4  2.91115E-01  5.08940E+02
   1  4  4  1.66809E-01  5.08980E+02
 *** Electron scaled bremss x-section,  ZEQ = 2.19537E+01,  NDATA =  57
 1.00E+03 4.22456E+00 4.28251E+00 4.33958E+00 4.39506E+00 4.44913E+00
          4.55385E+00 4.65336E+00 4.74741E+00 4.83602E+00 4.91967E+00
          4.99933E+00 5.07524E+00 5.14752E+00 5.21694E+00 5.28548E+00
          5.35497E+00 5.42567E+00 5.49802E+00 5.57181E+00 5.64435E+00
          5.71176E+00 5.74410E+00 5.78052E+00 5.81570E+00 5.86072E+00
          5.87371E+00 5.88332E+00 5.88435E+00 5.88543E+00 5.88563E+00
          5.88562E+00 5.88572E+00                                     4.416E+00
 1.50E+03 5.31511E+00 5.37198E+00 5.42782E+00 5.48185E+00 5.53440E+00
          5.63626E+00 5.73286E+00 5.82369E+00 5.90844E+00 5.98703E+00
          6.05972E+00 6.12658E+00 6.18810E+00 6.24558E+00 6.30235E+00
          6.36150E+00 6.42353E+00 6.48891E+00 6.55878E+00 6.63612E+00
          6.72242E+00 6.76547E+00 6.80057E+00 6.82094E+00 6.85116E+00
          6.86262E+00 6.86777E+00 6.86793E+00 6.86876E+00 6.86885E+00
          6.86914E+00 6.86899E+00                                     5.317E+00
 2.00E+03 6.19228E+00 6.25232E+00 6.31056E+00 6.36564E+00 6.41807E+00
          6.51739E+00 6.60876E+00 6.69253E+00 6.76844E+00 6.83643E+00
          6.89674E+00 6.94938E+00 6.99507E+00 7.03563E+00 7.07583E+00
          7.12006E+00 7.16943E+00 7.22492E+00 7.28820E+00 7.36255E+00
          7.44863E+00 7.49115E+00 7.52243E+00 7.53603E+00 7.55852E+00
          7.56839E+00 7.57149E+00 7.57130E+00 7.57195E+00 7.57202E+00
          7.57237E+00 7.57218E+00                                     6.014E+00
 3.00E+03 7.54277E+00 7.62371E+00 7.69985E+00 7.76753E+00 7.82767E+00
          7.93034E+00 8.00925E+00 8.06707E+00 8.10670E+00 8.13322E+00
          8.15351E+00 8.16966E+00 8.18310E+00 8.19594E+00 8.21205E+00
          8.23494E+00 8.26483E+00 8.30036E+00 8.34056E+00 8.38782E+00
          8.44399E+00 8.47336E+00 8.49771E+00 8.51128E+00 8.52558E+00
          8.52907E+00 8.53140E+00 8.53164E+00 8.53190E+00 8.53191E+00
          8.53200E+00 8.53197E+00                                     7.062E+00
 4.00E+03 8.57697E+00 8.68294E+00 8.77891E+00 8.85732E+00 8.92016E+00
          9.01171E+00 9.06495E+00 9.09352E+00 9.10299E+00 9.09951E+00
          9.09096E+00 9.07945E+00 9.06572E+00 9.05117E+00 9.03839E+00
          9.03034E+00 9.02838E+00 9.03414E+00 9.04932E+00 9.07465E+00
          9.10710E+00 9.12276E+00 9.13684E+00 9.14600E+00 9.15346E+00
          9.15517E+00 9.15647E+00 9.15663E+00 9.15675E+00 9.15674E+00
          9.15677E+00 9.15679E+00                                     7.828E+00
 5.00E+03 9.41302E+00 9.53938E+00 9.65132E+00 9.73791E+00 9.80213E+00
          9.88194E+00 9.91021E+00 9.90985E+00 9.88944E+00 9.85747E+00
          9.82391E+00 9.78892E+00 9.74868E+00 9.70315E+00 9.65993E+00
          9.62611E+00 9.60179E+00 9.58429E+00 9.57203E+00 9.56930E+00
          9.57747E+00 9.58270E+00 9.58732E+00 9.58999E+00 9.59192E+00
          9.59232E+00 9.59267E+00 9.59270E+00 9.59273E+00 9.59274E+00
          9.59275E+00 9.59277E+00                                     8.422E+00
 6.00E+03 1.01143E+01 1.02574E+01 1.03818E+01 1.04735E+01 1.05363E+01
          1.06004E+01 1.06020E+01 1.05735E+01 1.05258E+01 1.04685E+01
          1.04125E+01 1.03563E+01 1.02925E+01 1.02202E+01 1.01503E+01
          1.00929E+01 1.00471E+01 1.00075E+01 9.97039E+00 9.94197E+00
          9.92675E+00 9.92181E+00 9.91731E+00 9.91385E+00 9.91026E+00
          9.90942E+00 9.90880E+00 9.90873E+00 9.90866E+00 9.90865E+00
          9.90864E+00 9.90867E+00                                     8.898E+00
 8.00E+03 1.12505E+01 1.14141E+01 1.15520E+01 1.16448E+01 1.16983E+01
          1.17239E+01 1.16726E+01 1.15923E+01 1.14969E+01 1.13961E+01
          1.13004E+01 1.12062E+01 1.11029E+01 1.09879E+01 1.08754E+01
          1.07775E+01 1.06927E+01 1.06134E+01 1.05338E+01 1.04618E+01
          1.04049E+01 1.03812E+01 1.03598E+01 1.03446E+01 1.03297E+01
          1.03263E+01 1.03236E+01 1.03233E+01 1.03230E+01 1.03230E+01
          1.03229E+01 1.03230E+01                                     9.620E+00
 1.00E+04 1.21511E+01 1.23153E+01 1.24502E+01 1.25338E+01 1.25730E+01
          1.25611E+01 1.24654E+01 1.23409E+01 1.22031E+01 1.20622E+01
          1.19292E+01 1.18000E+01 1.16636E+01 1.15166E+01 1.13729E+01
          1.12436E+01 1.11269E+01 1.10140E+01 1.08993E+01 1.07917E+01
          1.07006E+01 1.06606E+01 1.06238E+01 1.05975E+01 1.05717E+01
          1.05657E+01 1.05609E+01 1.05603E+01 1.05599E+01 1.05598E+01
          1.05598E+01 1.05598E+01                                     1.014E+01
 1.50E+04 1.38014E+01 1.39362E+01 1.40376E+01 1.40807E+01 1.40746E+01
          1.39666E+01 1.37720E+01 1.35520E+01 1.33231E+01 1.30957E+01
          1.28811E+01 1.26766E+01 1.24749E+01 1.22723E+01 1.20763E+01
          1.18917E+01 1.17163E+01 1.15428E+01 1.13667E+01 1.11974E+01
          1.10431E+01 1.09704E+01 1.09016E+01 1.08512E+01 1.08030E+01
          1.07914E+01 1.07822E+01 1.07811E+01 1.07801E+01 1.07800E+01
          1.07799E+01 1.07799E+01                                     1.095E+01
 2.00E+04 1.49968E+01 1.50680E+01 1.51078E+01 1.50929E+01 1.50331E+01
          1.48304E+01 1.45529E+01 1.42555E+01 1.39531E+01 1.36550E+01
          1.33713E+01 1.31030E+01 1.28491E+01 1.26069E+01 1.23761E+01
          1.21545E+01 1.19403E+01 1.17289E+01 1.15178E+01 1.13128E+01
          1.11176E+01 1.10221E+01 1.09304E+01 1.08621E+01 1.07935E+01
          1.07751E+01 1.07647E+01 1.07639E+01 1.07625E+01 1.07621E+01
          1.07624E+01 1.07621E+01                                     1.140E+01
 3.00E+04 1.68961E+01 1.67198E+01 1.65348E+01 1.63354E+01 1.61286E+01
          1.57181E+01 1.53117E+01 1.49163E+01 1.45331E+01 1.41624E+01
          1.38028E+01 1.34557E+01 1.31217E+01 1.27990E+01 1.24913E+01
          1.21980E+01 1.19201E+01 1.16586E+01 1.14131E+01 1.11784E+01
          1.09509E+01 1.08430E+01 1.07430E+01 1.06619E+01 1.05237E+01
          1.04745E+01 1.04822E+01 1.04888E+01 1.04837E+01 1.04811E+01
          1.04849E+01 1.04824E+01                                     1.184E+01
 4.00E+04 1.79317E+01 1.76822E+01 1.74240E+01 1.71516E+01 1.68735E+01
          1.63289E+01 1.57985E+01 1.52891E+01 1.48012E+01 1.43345E+01
          1.38871E+01 1.34608E+01 1.30569E+01 1.26734E+01 1.23141E+01
          1.19799E+01 1.16717E+01 1.13908E+01 1.11360E+01 1.08950E+01
          1.06554E+01 1.05374E+01 1.04216E+01 1.03197E+01 1.01425E+01
          1.00821E+01 1.01032E+01 1.01133E+01 1.01053E+01 1.01015E+01
          1.01064E+01 1.01037E+01                                     1.202E+01
 5.00E+04 1.84520E+01 1.82267E+01 1.79842E+01 1.77129E+01 1.74228E+01
          1.68232E+01 1.61954E+01 1.55538E+01 1.49172E+01 1.43098E+01
          1.37570E+01 1.32641E+01 1.28287E+01 1.24410E+01 1.20914E+01
          1.17701E+01 1.14689E+01 1.11746E+01 1.08762E+01 1.05764E+01
          1.02804E+01 1.01337E+01 9.98420E+00 9.86582E+00 9.76223E+00
          9.73765E+00 9.71645E+00 9.71388E+00 9.71195E+00 9.71163E+00
          9.71155E+00 9.71139E+00                                     1.209E+01
 6.00E+04 1.90606E+01 1.87703E+01 1.84638E+01 1.81305E+01 1.77811E+01
          1.70740E+01 1.63519E+01 1.56290E+01 1.49232E+01 1.42567E+01
          1.36539E+01 1.31190E+01 1.26476E+01 1.22277E+01 1.18474E+01
          1.14968E+01 1.11681E+01 1.08510E+01 1.05362E+01 1.02233E+01
          9.91479E+00 9.76361E+00 9.61349E+00 9.49667E+00 9.38653E+00
          9.36024E+00 9.33854E+00 9.33589E+00 9.33378E+00 9.33352E+00
          9.33331E+00 9.33327E+00                                     1.211E+01
 8.00E+04 1.98514E+01 1.95666E+01 1.92367E+01 1.88307E+01 1.83721E+01
          1.74040E+01 1.64325E+01 1.55451E+01 1.47494E+01 1.40372E+01
          1.34021E+01 1.28334E+01 1.23089E+01 1.18143E+01 1.13563E+01
          1.09428E+01 1.05669E+01 1.02170E+01 9.88101E+00 9.54648E+00
          9.21462E+00 9.05997E+00 8.91236E+00 8.79902E+00 8.67983E+00
          8.65207E+00 8.62978E+00 8.62675E+00 8.62462E+00 8.62436E+00
          8.62413E+00 8.62417E+00                                     1.208E+01
 1.00E+05 2.04714E+01 2.01074E+01 1.96968E+01 1.92074E+01 1.86655E+01
          1.75423E+01 1.64393E+01 1.54498E+01 1.45768E+01 1.38067E+01
          1.31258E+01 1.25172E+01 1.19492E+01 1.14048E+01 1.08980E+01
          1.04422E+01 1.00312E+01 9.65070E+00 9.28756E+00 8.93124E+00
          8.58615E+00 8.42867E+00 8.27917E+00 8.16406E+00 8.04074E+00
          8.01193E+00 7.98927E+00 7.98617E+00 7.98392E+00 7.98369E+00
          7.98341E+00 7.98351E+00                                     1.201E+01
 1.50E+05 2.17952E+01 2.10167E+01 2.02495E+01 1.95042E+01 1.87897E+01
          1.74692E+01 1.62716E+01 1.51833E+01 1.41932E+01 1.32954E+01
          1.24852E+01 1.17554E+01 1.10957E+01 1.04940E+01 9.93773E+00
          9.42085E+00 8.94582E+00 8.50780E+00 8.10194E+00 7.71003E+00
          7.31995E+00 7.13316E+00 6.96441E+00 6.84666E+00 6.72165E+00
          6.68884E+00 6.66572E+00 6.66334E+00 6.66079E+00 6.66042E+00
          6.66011E+00 6.66016E+00                                     1.180E+01
 2.00E+05 2.22395E+01 2.14574E+01 2.06602E+01 1.98401E+01 1.90177E+01
          1.74453E+01 1.60145E+01 1.47777E+01 1.37107E+01 1.27790E+01
          1.19535E+01 1.12072E+01 1.05108E+01 9.84944E+00 9.23066E+00
          8.66118E+00 8.14009E+00 7.65575E+00 7.20007E+00 6.77974E+00
          6.38823E+00 6.19365E+00 6.00433E+00 5.86347E+00 5.73856E+00
          5.70805E+00 5.68384E+00 5.68085E+00 5.67858E+00 5.67822E+00
          5.67804E+00 5.67785E+00                                     1.164E+01
 3.00E+05 2.32717E+01 2.20883E+01 2.09528E+01 1.99030E+01 1.89341E+01
          1.71922E+01 1.56730E+01 1.43438E+01 1.31792E+01 1.21481E+01
          1.12263E+01 1.03976E+01 9.64550E+00 8.95401E+00 8.30516E+00
          7.68859E+00 7.10830E+00 6.57144E+00 6.07514E+00 5.61017E+00
          5.17306E+00 4.96680E+00 4.76813E+00 4.61990E+00 4.48945E+00
          4.45827E+00 4.43314E+00 4.43021E+00 4.42781E+00 4.42744E+00
          4.42724E+00 4.42701E+00                                     1.153E+01
 4.00E+05 2.38888E+01 2.25200E+01 2.12234E+01 2.00525E+01 1.89906E+01
          1.70972E+01 1.54727E+01 1.40676E+01 1.28506E+01 1.17804E+01
          1.08206E+01 9.95270E+00 9.16214E+00 8.43449E+00 7.75454E+00
          7.11265E+00 6.50923E+00 5.94693E+00 5.42462E+00 4.93173E+00
          4.46738E+00 4.24976E+00 4.04619E+00 3.89791E+00 3.75933E+00
          3.72645E+00 3.70089E+00 3.69784E+00 3.69527E+00 3.69498E+00
          3.69466E+00 3.69461E+00                                     1.160E+01
 5.00E+05 2.43605E+01 2.28627E+01 2.14554E+01 2.02057E+01 1.90844E+01
          1.70882E+01 1.53921E+01 1.39355E+01 1.26799E+01 1.15790E+01
          1.05901E+01 9.69303E+00 8.87429E+00 8.12079E+00 7.41864E+00
          6.75855E+00 6.13918E+00 5.56052E+00 5.02232E+00 4.51352E+00
          4.03046E+00 3.80250E+00 3.58931E+00 3.43389E+00 3.28880E+00
          3.25465E+00 3.22820E+00 3.22503E+00 3.22233E+00 3.22204E+00
          3.22172E+00 3.22183E+00                                     1.176E+01
 6.00E+05 2.47512E+01 2.31587E+01 2.16721E+01 2.03687E+01 1.92080E+01
          1.71385E+01 1.53900E+01 1.38966E+01 1.26114E+01 1.14850E+01
          1.04723E+01 9.55219E+00 8.71167E+00 7.93820E+00 7.21862E+00
          6.54375E+00 5.91138E+00 5.32015E+00 4.76915E+00 4.24880E+00
          3.75044E+00 3.51282E+00 3.28868E+00 3.12389E+00 2.97233E+00
          2.93675E+00 2.90905E+00 2.90571E+00 2.90288E+00 2.90256E+00
          2.90224E+00 2.90243E+00                                     1.199E+01
 8.00E+05 2.53596E+01 2.36497E+01 2.20666E+01 2.07005E+01 1.94940E+01
          1.73294E+01 1.55087E+01 1.39668E+01 1.26425E+01 1.14806E+01
          1.04341E+01 9.48227E+00 8.61204E+00 7.81094E+00 7.06530E+00
          6.36575E+00 5.70994E+00 5.09630E+00 4.52214E+00 3.97860E+00
          3.45150E+00 3.19588E+00 2.95119E+00 2.76828E+00 2.60123E+00
          2.56172E+00 2.53058E+00 2.52688E+00 2.52371E+00 2.52332E+00
          2.52300E+00 2.52299E+00                                     1.253E+01
 1.00E+06 2.58301E+01 2.40482E+01 2.24087E+01 2.10109E+01 1.97848E+01
          1.75744E+01 1.57179E+01 1.41473E+01 1.27970E+01 1.16100E+01
          1.05406E+01 9.56790E+00 8.67857E+00 7.85891E+00 7.09407E+00
          6.37405E+00 5.69683E+00 5.06141E+00 4.46395E+00 3.89316E+00
          3.33632E+00 3.06286E+00 2.79839E+00 2.59768E+00 2.41173E+00
          2.36703E+00 2.33162E+00 2.32743E+00 2.32388E+00 2.32343E+00
          2.32305E+00 2.32274E+00                                     1.311E+01
 1.50E+06 2.66636E+01 2.47876E+01 2.30798E+01 2.16564E+01 2.04237E+01
          1.81858E+01 1.63148E+01 1.47149E+01 1.33291E+01 1.21052E+01
          1.10023E+01 9.99946E+00 9.08128E+00 8.23170E+00 7.43301E+00
          6.67359E+00 5.95222E+00 5.26888E+00 4.61793E+00 3.98039E+00
          3.34420E+00 3.02409E+00 2.70404E+00 2.45101E+00 2.21022E+00
          2.15086E+00 2.10314E+00 2.09744E+00 2.09283E+00 2.09221E+00
          2.09173E+00 2.09145E+00                                     1.450E+01
 2.00E+06 2.71976E+01 2.52908E+01 2.35664E+01 2.21490E+01 2.09311E+01
          1.87074E+01 1.68498E+01 1.52493E+01 1.38562E+01 1.26213E+01
          1.15058E+01 1.04889E+01 9.55482E+00 8.68676E+00 7.86530E+00
          7.07781E+00 6.32349E+00 5.60300E+00 4.90889E+00 4.21513E+00
          3.50040E+00 3.13238E+00 2.75011E+00 2.43635E+00 2.13588E+00
          2.06197E+00 2.00253E+00 1.99525E+00 1.98908E+00 1.98832E+00
          1.98776E+00 1.98839E+00                                     1.568E+01
 3.00E+06 2.78582E+01 2.59142E+01 2.41779E+01 2.27900E+01 2.16233E+01
          1.94900E+01 1.76944E+01 1.61336E+01 1.47615E+01 1.35318E+01
          1.24069E+01 1.13697E+01 1.04088E+01 9.51190E+00 8.66507E+00
          7.85612E+00 7.07646E+00 6.31368E+00 5.55025E+00 4.75771E+00
          3.90358E+00 3.44301E+00 2.94851E+00 2.51961E+00 2.08127E+00
          1.97848E+00 1.90552E+00 1.89634E+00 1.88472E+00 1.88287E+00
          1.88412E+00 1.88588E+00                                     1.755E+01
 4.00E+06 2.82049E+01 2.62606E+01 2.45416E+01 2.31997E+01 2.20921E+01
          2.00545E+01 1.83167E+01 1.67944E+01 1.54464E+01 1.42303E+01
          1.31115E+01 1.20744E+01 1.11088E+01 1.02036E+01 9.34578E+00
          8.52333E+00 7.72638E+00 6.94010E+00 6.14084E+00 5.28565E+00
          4.32058E+00 3.77572E+00 3.17110E+00 2.63551E+00 2.07445E+00
          1.94084E+00 1.85377E+00 1.84310E+00 1.82668E+00 1.82390E+00
          1.82714E+00 1.82860E+00                                     1.894E+01
 5.00E+06 2.81673E+01 2.63348E+01 2.47289E+01 2.34994E+01 2.24908E+01
          2.05766E+01 1.88845E+01 1.73615E+01 1.59887E+01 1.47461E+01
          1.36183E+01 1.25897E+01 1.16442E+01 1.07631E+01 9.92362E+00
          9.10683E+00 8.30247E+00 7.49556E+00 6.65960E+00 5.74331E+00
          4.68271E+00 4.07476E+00 3.39473E+00 2.78705E+00 2.09671E+00
          1.91282E+00 1.81779E+00 1.80960E+00 1.78796E+00 1.78329E+00
          1.78984E+00 1.78876E+00                                     2.002E+01
 6.00E+06 2.83045E+01 2.64694E+01 2.48773E+01 2.36879E+01 2.27280E+01
          2.08808E+01 1.92385E+01 1.77534E+01 1.64093E+01 1.51881E+01
          1.40758E+01 1.30580E+01 1.21196E+01 1.12433E+01 1.04068E+01
          9.59140E+00 8.78558E+00 7.97204E+00 7.11961E+00 6.16707E+00
          5.03498E+00 4.37023E+00 3.61147E+00 2.92247E+00 2.12503E+00
          1.90733E+00 1.79392E+00 1.78431E+00 1.75972E+00 1.75440E+00
          1.76200E+00 1.75955E+00                                     2.090E+01
 8.00E+06 2.84134E+01 2.65832E+01 2.50230E+01 2.39074E+01 2.30323E+01
          2.12961E+01 1.97415E+01 1.83249E+01 1.70345E+01 1.58549E+01
          1.47747E+01 1.37816E+01 1.28627E+01 1.20026E+01 1.11813E+01
          1.03804E+01 9.58625E+00 8.77680E+00 7.91114E+00 6.90668E+00
          5.65421E+00 4.89167E+00 3.99943E+00 3.17524E+00 2.22008E+00
          1.94241E+00 1.74564E+00 1.73272E+00 1.72966E+00 1.72571E+00
          1.70968E+00 1.71662E+00                                     2.223E+01
 1.00E+07 2.84571E+01 2.66317E+01 2.50950E+01 2.40322E+01 2.32176E+01
          2.15619E+01 2.00739E+01 1.87125E+01 1.74682E+01 1.63274E+01
          1.52799E+01 1.43150E+01 1.34208E+01 1.25829E+01 1.17822E+01
          1.10005E+01 1.02229E+01 9.42478E+00 8.55921E+00 7.52976E+00
          6.20263E+00 5.37055E+00 4.37259E+00 3.42584E+00 2.30860E+00
          1.97575E+00 1.72808E+00 1.70861E+00 1.70252E+00 1.69834E+00
          1.68021E+00 1.68718E+00                                     2.322E+01
 1.50E+07 2.86256E+01 2.67880E+01 2.52653E+01 2.42592E+01 2.35161E+01
          2.19631E+01 2.05659E+01 1.92899E+01 1.81265E+01 1.70633E+01
          1.60909E+01 1.51983E+01 1.43734E+01 1.36003E+01 1.28568E+01
          1.21224E+01 1.13829E+01 1.06149E+01 9.77302E+00 8.76097E+00
          7.39963E+00 6.47421E+00 5.25803E+00 4.02056E+00 2.51427E+00
          2.06964E+00 1.73509E+00 1.69341E+00 1.65472E+00 1.65049E+00
          1.65063E+00 1.64592E+00                                     2.493E+01
 2.00E+07 2.85659E+01 2.67471E+01 2.52558E+01 2.43002E+01 2.36138E+01
          2.21508E+01 2.08300E+01 1.96228E+01 1.85219E+01 1.75164E+01
          1.65981E+01 1.57573E+01 1.49828E+01 1.42595E+01 1.35659E+01
          1.28813E+01 1.21911E+01 1.14695E+01 1.06657E+01 9.66841E+00
          8.27216E+00 7.29595E+00 5.98460E+00 4.59396E+00 2.76455E+00
          2.19788E+00 1.73740E+00 1.67883E+00 1.63363E+00 1.62886E+00
          1.62771E+00 1.62238E+00                                     2.602E+01
 3.00E+07 2.84115E+01 2.66247E+01 2.51799E+01 2.42944E+01 2.36851E+01
          2.23445E+01 2.11286E+01 2.00153E+01 1.89993E+01 1.80724E+01
          1.72279E+01 1.64585E+01 1.57551E+01 1.51050E+01 1.44893E+01
          1.38893E+01 1.32896E+01 1.26616E+01 1.19448E+01 1.10008E+01
          9.58202E+00 8.54864E+00 7.12497E+00 5.54295E+00 3.25874E+00
          2.49794E+00 1.77910E+00 1.67744E+00 1.60837E+00 1.60253E+00
          1.59327E+00 1.59801E+00                                     2.744E+01
 4.00E+07 2.83568E+01 2.65770E+01 2.51479E+01 2.42911E+01 2.37149E+01
          2.24281E+01 2.12620E+01 2.01986E+01 1.92323E+01 1.83557E+01
          1.75630E+01 1.68472E+01 1.61995E+01 1.56076E+01 1.50520E+01
          1.45138E+01 1.39791E+01 1.34211E+01 1.27812E+01 1.19200E+01
          1.05723E+01 9.54760E+00 8.07476E+00 6.35256E+00 3.68798E+00
          2.75663E+00 1.83805E+00 1.69774E+00 1.59236E+00 1.58447E+00
          1.58232E+00 1.58455E+00                                     2.832E+01
 5.00E+07 2.83343E+01 2.65654E+01 2.51499E+01 2.43115E+01 2.37548E+01
          2.24996E+01 2.13623E+01 2.03273E+01 1.93892E+01 1.85418E+01
          1.77796E+01 1.70966E+01 1.64850E+01 1.59336E+01 1.54241E+01
          1.49391E+01 1.44650E+01 1.39749E+01 1.34068E+01 1.26090E+01
          1.13109E+01 1.03186E+01 8.89271E+00 7.14157E+00 4.11859E+00
          2.98770E+00 1.86840E+00 1.70743E+00 1.59940E+00 1.59027E+00
          1.58098E+00 1.57659E+00                                     2.896E+01
 6.00E+07 2.82534E+01 2.65101E+01 2.51197E+01 2.43048E+01 2.37698E+01
          2.25522E+01 2.14464E+01 2.04370E+01 1.95205E+01 1.86916E+01
          1.79467E+01 1.72825E+01 1.66955E+01 1.61780E+01 1.57144E+01
          1.52854E+01 1.48665E+01 1.44181E+01 1.38765E+01 1.31210E+01
          1.19104E+01 1.09693E+01 9.56304E+00 7.75418E+00 4.51193E+00
          3.23004E+00 1.92441E+00 1.73544E+00 1.59845E+00 1.58686E+00
          1.57249E+00 1.57147E+00                                     2.945E+01
 8.00E+07 2.82081E+01 2.64913E+01 2.51232E+01 2.43241E+01 2.38012E+01
          2.26076E+01 2.15267E+01 2.05460E+01 1.96616E+01 1.88687E+01
          1.81633E+01 1.75408E+01 1.69956E+01 1.65186E+01 1.60946E+01
          1.57094E+01 1.53529E+01 1.50020E+01 1.45966E+01 1.39775E+01
          1.28595E+01 1.19530E+01 1.05921E+01 8.78407E+00 5.21709E+00
          3.69537E+00 2.03827E+00 1.78587E+00 1.60035E+00 1.58365E+00
          1.56761E+00 1.56420E+00                                     3.015E+01
 1.00E+08 2.81180E+01 2.64445E+01 2.51129E+01 2.43393E+01 2.38350E+01
          2.26726E+01 2.16128E+01 2.06475E+01 1.97750E+01 1.89936E+01
          1.83025E+01 1.76988E+01 1.71780E+01 1.67330E+01 1.63513E+01
          1.60190E+01 1.57216E+01 1.54243E+01 1.50655E+01 1.45226E+01
          1.35428E+01 1.27135E+01 1.13981E+01 9.59096E+00 5.85581E+00
          4.11893E+00 2.15078E+00 1.84481E+00 1.60631E+00 1.58300E+00
          1.56346E+00 1.55989E+00                                     3.065E+01
 1.50E+08 2.80609E+01 2.64374E+01 2.51445E+01 2.43905E+01 2.38964E+01
          2.27595E+01 2.17239E+01 2.07827E+01 1.99350E+01 1.91792E+01
          1.85150E+01 1.79406E+01 1.74532E+01 1.70479E+01 1.67155E+01
          1.64456E+01 1.62274E+01 1.60307E+01 1.58018E+01 1.54338E+01
          1.46900E+01 1.39988E+01 1.28154E+01 1.10798E+01 7.13896E+00
          5.06326E+00 2.42984E+00 1.99554E+00 1.62693E+00 1.58858E+00
          1.55753E+00 1.55420E+00                                     3.143E+01
 2.00E+08 2.80221E+01 2.64506E+01 2.51918E+01 2.44432E+01 2.39421E+01
          2.28084E+01 2.17806E+01 2.08520E+01 2.00203E+01 1.92826E+01
          1.86368E+01 1.80809E+01 1.76123E+01 1.72263E+01 1.69134E+01
